timestamp,1,2,3,4,5,6,7,8
1491505121163,1, 20, 5, 0, 0, 1, 1, 1
1491505121171,1, 2, 3, -3, 3, -2, -2, 1
1491505121179,1, -7, -2, -1, -1, 0, -2, -4
1491505121194,-2, 4, 2, -1, -1, 0, -2, 0
1491505121201,-2, -11, -3, 0, -2, -2, -2, 0
1491505121216,0, -1, 0, 0, 1, 1, -1, -1
1491505121222,2, 0, -1, -1, -1, 0, 0, -3
1491505121223,-1, -1, 5, -1, -3, 0, 0, -4
1491505121233,-2, -9, -5, 0, -4, -1, 0, -1
1491505121237,2, 21, 6, 1, 1, -1, -1, 0
1491505121238,-2, 11, 7, 3, 1, -1, -1, -1
1491505121253,-2, -2, 0, -1, -1, -3, 0, 0
1491505121260,0, 0, -2, -2, 0, 0, -1, -3
1491505121268,0, -20, -4, -2, 0, 0, 0, -1
1491505121269,1, 24, 5, 1, 0, -2, 0, -2
1491505121283,0, 0, -2, -2, -1, -2, -1, 0
1491505121291,0, -14, -5, -1, -2, 0, 0, -1
1491505121297,-1, -7, -7, -3, 0, 0, 0, 1
1491505121312,0, 5, 12, 2, 0, 0, -3, -2
1491505121313,0, -3, -3, -3, -1, -1, -2, -3
1491505121320,0, -9, -3, -1, 1, -1, 0, 0
1491505121328,0, 3, 2, -1, -1, -1, -2, -3
1491505121343,-1, -1, -1, -1, 0, -2, -1, -3
1491505121350,0, 6, 1, 3, -1, -1, 2, -1
1491505121351,0, -10, -3, -1, -1, 1, 0, 3
1491505121357,-1, -4, -4, -1, -2, 0, -3, 0
1491505121358,1, 0, 0, -1, -2, -1, 0, 0
1491505121373,-1, -3, -1, -2, -1, -1, -1, -2
1491505121382,-2, 0, 0, 0, -3, -1, -1, -2
1491505121389,0, 12, 11, 1, -1, 1, 0, -2
1491505121404,-2, 0, 3, 2, 1, 1, 0, 0
1491505121411,0, 3, -3, 0, -1, 0, -3, -1
1491505121418,-2, -4, -3, -2, -2, 0, -1, -3
1491505121432,-2, 0, -2, -1, 0, 0, 2, 1
1491505121433,-2, -6, -2, 0, 1, -2, 1, -3
1491505121440,0, 5, 0, -1, -1, -1, -1, -3
1491505121448,2, 17, 3, 0, -2, 2, 0, 2
1491505121463,-2, -1, -1, -3, -2, -2, -1, 0
1491505121472,0, 12, 2, 0, -1, -1, 0, -3
1491505121480,1, -5, -3, -2, -2, -1, -1, 0
1491505121495,1, 12, 5, -1, 0, 0, 0, 2
1491505121500,-2, -13, -7, 0, -1, -1, -1, -4
1491505121508,-4, -14, -1, -1, 0, -2, 0, -4
1491505121523,0, -3, 1, 0, 1, 0, -2, -1
1491505121531,-3, -5, -3, -1, -2, -1, -3, 1
1491505121540,-2, 9, -2, 2, -3, -1, -2, 0
1491505121552,-1, -4, 2, 1, -1, -1, 4, 1
1491505121554,-2, -4, -5, -2, -2, 0, -2, 0
1491505121562,2, 11, 2, -2, -1, -1, -1, -1
1491505121575,-1, -6, -4, -1, 0, -1, 2, -1
1491505121590,0, 4, 4, 0, 1, 0, 0, -1
1491505121591,1, 12, -2, 0, 0, -3, -1, 0
1491505121605,-2, 7, 1, -3, 1, -1, 1, -1
1491505121613,-1, -4, -2, -2, -1, -1, 0, -2
1491505121620,1, -3, -2, 2, 0, 0, -2, 1
1491505121635,0, -6, -3, 0, -1, 0, -1, 1
1491505121643,-1, -9, -2, -2, -1, 0, -1, 1
1491505121651,0, -7, -1, -1, -1, -2, -1, -4
1491505121664,0, -4, -3, -2, 0, 1, 0, -1
1491505121673,1, -4, 0, -1, -2, -1, -1, -3
1491505121680,-1, 4, 0, -2, -3, -2, 0, -3
1491505121695,-3, -20, -7, -3, 1, -1, -2, -2
1491505121704,2, -15, -4, 0, -2, 0, -2, -2
1491505121714,-2, -6, -4, -1, -1, 1, -2, -3
1491505121724,0, -1, -1, 0, 0, 1, -2, -2
1491505121733,-1, 0, 1, 1, 1, 0, 0, -3
1491505121741,-1, -1, -1, 1, -2, -2, 1, 1
1491505121757,-2, 3, 1, -1, -1, 0, -1, 2
1491505121762,0, 4, 1, 0, 0, -2, 0, -1
1491505121763,-2, -9, -4, -1, 0, -1, -1, 0
1491505121770,-1, -6, -5, -3, -3, 0, -2, 1
1491505121771,1, 27, 6, 0, -2, -1, -2, -1
1491505121784,1, 1, -2, 0, -3, 0, -4, -1
1491505121794,-1, -12, -5, 0, -1, 0, 2, -2
1491505121800,-1, 5, -2, -2, 0, -2, 2, -3
1491505121815,1, -1, 0, -2, 0, 0, 0, -1
1491505121823,0, 1, 3, 1, -1, 1, 0, -3
1491505121832,-1, -8, -2, -3, 0, 0, 0, 1
1491505121844,-1, 2, -3, 0, 0, -1, -2, -2
1491505121845,-4, -8, -2, -1, -2, -2, -1, -3
1491505121853,0, -2, -2, -2, -2, -2, -1, 0
1491505121862,2, 31, 9, -1, 0, 0, 1, 1
1491505121875,-1, -11, -4, 1, -3, -1, 0, -4
1491505121883,3, 9, 8, 0, 1, -2, 0, 1
1491505121884,-1, -9, -5, -3, 0, -1, -2, -2
1491505121891,-1, 3, -2, 0, 0, 0, 0, 1
1491505121906,0, -2, -2, -1, -1, 0, -1, 0
1491505121916,-2, -5, -3, 0, 1, -1, 0, -1
1491505121921,-1, -1, 1, -2, -2, -1, -4, -2
1491505121935,-2, -1, 3, -1, -3, 0, -3, 0
1491505121942,0, 0, -6, -1, -2, 2, -1, -2
1491505121943,-1, -8, -2, -1, -1, -1, 0, 0
1491505121950,4, 44, 15, 3, 0, -2, 0, 0
1491505121964,0, -9, -4, 0, 0, -2, -1, -2
1491505121972,-3, -15, -7, -3, -1, -3, 0, -1
1491505121981,-1, -1, -2, -1, -1, 0, -1, -2
1491505121995,1, -3, 0, -1, -1, -1, -1, -4
1491505121996,-1, -4, -4, -1, 1, 0, -1, -2
1491505122003,0, -2, 4, -2, 0, 1, 0, 0
1491505122010,-1, -4, 0, -2, 1, 1, -1, 1
1491505122024,-2, 4, -2, -2, 0, 1, 1, -2
1491505122033,1, -5, -1, -2, 0, -2, -1, -4
1491505122040,-2, 1, -2, -1, -1, -1, -1, 1
1491505122055,0, -12, -3, -3, 0, 0, 0, -2
1491505122062,-1, 0, 0, -3, 0, -2, -2, -4
1491505122063,-2, -9, -4, -2, -1, -1, 0, -2
1491505122071,2, 3, 0, 2, -2, -1, -1, -1
1491505122085,-1, -4, -4, 1, 0, -3, -3, -4
1491505122092,-1, 0, -1, -2, -2, 0, -1, -1
1491505122100,-1, 1, 0, 1, -2, -1, -3, -2
1491505122115,-2, -5, -4, -2, 0, 0, -2, -2
1491505122116,0, 0, 1, -1, -1, -1, -2, 0
1491505122123,-1, -7, -3, -2, -1, -1, 0, -3
1491505122131,-4, -9, -5, -1, -3, -1, -1, -5
1491505122144,-1, -12, -7, 0, 0, 1, 1, 0
1491505122153,1, 17, 3, 0, -1, 0, 0, -1
1491505122160,-1, 8, 2, 0, 1, -2, -1, -1
1491505122175,1, 12, 1, 0, 0, 1, -2, 2
1491505122184,1, 3, 1, -1, 0, 0, 0, -2
1491505122191,0, -10, -3, 0, 0, -2, -2, 2
1491505122204,1, 3, -1, -1, -1, 1, 0, 0
1491505122213,-3, 7, 3, -3, 2, 0, -2, 0
1491505122220,0, -3, 1, 0, 0, 1, 1, -3
1491505122235,1, -2, -5, -1, 0, -2, 0, -2
1491505122243,-2, 1, 1, 0, 0, -2, -1, -2
1491505122250,-2, 4, -1, 0, -1, -2, -2, 0
1491505122251,0, -11, -3, -2, -2, -1, -1, -3
1491505122264,1, -1, -4, -1, 1, -1, -3, -1
1491505122272,0, 1, 2, -4, -2, 0, -1, 0
1491505122273,-1, -4, -2, 0, -1, -1, -1, -1
1491505122280,0, -5, -2, 0, -1, -2, -1, -1
1491505122281,0, 3, -1, -1, -1, -2, -1, 1
1491505122295,-3, 4, 2, 1, 0, -1, 0, -1
1491505122302,0, -3, -1, -3, 2, 0, 1, -1
1491505122303,1, 1, 2, -2, -1, -3, 0, 3
1491505122310,-2, -8, -1, -1, -1, -1, 0, -4
1491505122311,0, 10, 2, 2, -2, 2, 0, 3
1491505122325,-2, 4, -1, -2, 0, -2, -1, 0
1491505122333,-1, -8, -4, 0, -1, 0, -1, -1
1491505122340,2, 17, 1, -1, -1, -1, -2, 0
1491505122355,-1, -9, -3, -1, -4, -2, -3, -3
1491505122363,-1, -5, -1, 1, 0, 0, 2, -2
1491505122371,0, -9, -3, -3, -1, -1, 0, 1
1491505122385,-1, 0, 1, 1, -1, -3, -1, -1
1491505122393,2, 23, 6, 0, 2, 1, -1, 0
1491505122400,-2, -3, 1, 0, -1, -3, 0, -2
1491505122416,-1, -14, -4, -1, -2, -1, 1, -3
1491505122423,-2, 0, 0, -3, -3, -1, -2, -4
1491505122431,-1, -2, 0, -1, -1, 0, -2, -2
1491505122444,-1, -7, 5, 2, -2, 0, 0, 1
1491505122452,0, 3, -4, 1, -1, 1, -1, -2
1491505122453,0, -2, 0, 0, 1, -1, -2, 0
1491505122467,0, -8, -5, -5, -1, 0, -2, 1
1491505122475,-1, 18, 5, 1, 2, -3, -1, -1
1491505122490,0, -4, -2, -1, -2, -2, -2, -2
1491505122498,-4, -14, -10, -3, -2, 0, -1, 0
1491505122505,-1, 3, 0, 0, 1, -1, -2, -3
1491505122512,0, -5, 0, 0, 0, -2, -1, 0
1491505122527,-3, -2, -1, 1, 1, 1, -2, -3
1491505122535,-3, -9, -5, -1, -3, 1, 1, -2
1491505122543,-1, 0, -3, -2, -1, -1, -3, 0
1491505122557,1, 1, -1, 0, -2, 2, 0, -1
1491505122558,0, -8, 1, -2, -1, -1, -2, -3
1491505122564,-1, -10, -5, -1, 0, 0, 2, 0
1491505122572,-1, 13, 8, 1, -2, 0, 1, -3
1491505122573,-1, -11, -4, 0, -3, -1, -1, -1
1491505122587,-1, -3, -1, -1, 1, 0, 0, 0
1491505122595,-2, 6, -2, 0, -1, -2, -1, -1
1491505122603,-1, 4, -2, 1, 0, -2, 0, -1
1491505122618,0, -2, -2, -2, 0, 1, -1, -2
1491505122624,-1, -4, -5, 0, -2, -1, -2, -1
1491505122625,0, 3, 1, -1, 1, -1, -1, -1
1491505122633,-1, -4, 0, 0, 0, -1, -1, -1
1491505122647,-1, -1, 1, -2, -2, 0, -2, -3
1491505122655,-1, -1, 0, 0, 0, 0, 0, 0
1491505122664,-2, 14, 0, 0, 2, 0, 1, 0
1491505122678,-2, -4, -2, 0, 0, -1, -3, -1
1491505122684,0, 8, 5, 0, 1, 0, 1, 0
1491505122685,-1, -16, -8, 0, -1, -2, 1, 0
1491505122693,0, 1, 1, 0, -1, 0, 0, -3
1491505122707,0, 8, 2, 0, -1, -2, -3, 1
1491505122715,0, 2, 8, 0, -1, 0, -1, 3
1491505122723,-2, -3, 1, -1, 1, 0, -2, -2
1491505122738,0, -4, -4, -3, -2, -2, -2, -1
1491505122744,2, 0, 2, 1, -3, 0, -1, -2
1491505122753,2, 27, 5, 0, -1, -1, -1, -1
1491505122767,-2, -12, -7, -2, -1, -1, 0, -1
1491505122775,-2, -7, 6, 1, -3, 2, -1, 0
1491505122782,0, -1, -4, -1, -1, -1, -3, -2
1491505122783,-2, -1, -1, 0, -1, -1, -2, -1
1491505122798,-1, -2, 2, 0, -1, -2, 0, -3
1491505122804,-1, -5, -1, -1, -1, -1, 0, 1
1491505122813,1, -9, -9, -2, -2, -1, -2, -2
1491505122827,0, 4, 5, 1, 1, -2, -1, 0
1491505122836,-2, -12, -6, -2, 0, 0, 0, -1
1491505122843,1, -8, -4, -1, -1, 0, -2, -2
1491505122857,-1, -1, -2, 0, -1, -1, 0, -1
1491505122858,-4, -8, 0, -1, 1, -1, -1, -3
1491505122864,2, 5, 4, -1, -1, 1, -1, 0
1491505122873,0, -9, -5, -2, -1, -1, 1, -2
1491505122887,-2, -1, -1, 0, 0, 0, -2, -4
1491505122895,0, 4, 1, 0, -1, 0, 1, 1
1491505122902,2, 7, 5, 1, -1, 0, -1, 1
1491505122917,0, 1, -1, -1, -2, 0, -1, 0
1491505122924,-1, -3, -4, -1, -1, 0, -2, -1
1491505122932,-1, 2, -3, -2, -2, -1, -2, 0
1491505122947,3, 47, 14, 2, -3, 0, 0, 2
1491505122955,0, 2, 0, -1, 1, -1, -1, -2
1491505122963,-1, -24, -6, -3, 0, -1, 1, -3
1491505122977,-2, -5, -1, 1, -2, -3, -1, 0
1491505122984,0, -2, -4, -2, -1, -2, -2, -1
1491505122993,0, -3, -1, -1, 0, -2, -1, -3
1491505123007,-1, -7, -2, -1, -1, 1, 0, 1
1491505123015,0, 3, 1, -1, -1, -3, -3, -3
1491505123025,0, -12, -5, -1, -1, -2, -2, -2
1491505123038,-1, -7, -1, 0, 0, 2, 1, -1
1491505123046,-1, -8, -3, -1, 0, -2, -1, -6
1491505123053,3, 18, 2, 0, 1, 0, 0, 1
1491505123067,-3, 2, -2, -1, 1, -2, -1, 1
1491505123075,1, 0, -3, -1, -1, -1, -3, -1
1491505123083,0, 1, -3, 0, -2, -1, -1, 1
1491505123098,1, 0, -2, -2, -1, 0, -4, 0
1491505123104,-1, -3, -1, -2, -2, -1, -1, 0
1491505123112,1, 4, 7, 1, 2, 1, 1, 1
1491505123113,-3, 2, 0, 1, 0, 0, -1, -1
1491505123127,1, -3, -2, -1, -3, 0, -2, -4
1491505123135,1, 3, 6, 1, 1, 1, 0, 1
1491505123142,-2, -5, -5, -1, -1, 1, -1, -2
1491505123143,-2, 4, -2, -1, 0, 0, -1, -1
1491505123158,-1, -6, -3, 0, -1, -1, 0, -4
1491505123164,-3, -8, -3, -1, -1, 0, -1, -5
1491505123174,-1, 2, -2, -2, -1, -2, -1, -3
1491505123187,1, 4, -1, -1, -2, -1, 0, 1
1491505123195,-2, -2, -2, 0, -1, -1, 0, -3
1491505123207,1, 9, 4, 1, 1, 0, 0, 1
1491505123217,-2, 2, -2, -1, -2, -1, 0, 0
1491505123218,-2, -7, -3, -2, 0, -2, -2, -3
1491505123224,-1, 0, 5, 2, -1, -1, -1, -1
1491505123232,-2, 8, 3, -1, -1, -2, -2, 3
1491505123247,-4, -6, 0, -2, -2, 1, 0, 0
1491505123255,0, 5, 1, 1, 0, 1, -1, -1
1491505123262,0, -3, -2, -1, 0, 0, -3, 2
1491505123263,0, -5, -5, -1, 0, -1, -2, -1
1491505123278,-2, -4, -3, -1, -1, -2, 1, 1
1491505123284,-2, -3, -1, 0, 0, 0, -2, -4
1491505123293,1, -3, -2, -1, -2, 0, 0, -4
1491505123307,-2, -3, -4, -2, -1, -1, 1, -1
1491505123315,-3, -16, -5, -2, -3, -1, -2, 0
1491505123322,0, 4, -1, -1, -1, -1, -1, 0
1491505123339,-1, -5, -5, -2, 0, 0, 0, 1
1491505123345,-2, -10, -5, -2, -2, 0, -1, -2
1491505123346,2, 22, 5, -1, 0, -1, 0, -1
1491505123353,-1, 0, 1, -1, 0, -1, -3, -4
1491505123367,-2, -10, -3, -2, -1, 0, 0, 0
1491505123377,-1, 4, 3, 1, 0, -1, 0, -1
1491505123385,-2, -7, -2, 0, -1, -1, -3, -1
1491505123398,0, -1, -4, -1, -1, -1, -2, 1
1491505123405,0, -2, -3, 2, -1, -3, 0, -3
1491505123414,-1, -3, -1, -1, -1, 0, -1, -3
1491505123427,2, 25, 7, -2, -1, -1, -1, 0
1491505123435,-3, 2, -3, -1, 0, -3, 0, -3
1491505123449,1, 11, 5, 0, 0, -1, 1, -1
1491505123459,-1, 0, -1, -1, -2, 1, 0, 1
1491505123465,-1, 3, 0, 0, 1, -1, -1, 2
1491505123480,1, 4, 7, -1, -1, -2, -1, 2
1491505123487,-2, -1, 1, 1, 1, 0, 2, -2
1491505123488,-1, -3, -2, -3, -1, 1, -2, -2
1491505123495,-1, -6, -1, 0, 0, 0, -1, -1
1491505123509,-3, 6, 1, -2, -2, 0, -2, -2
1491505123510,-2, -13, -5, -2, -2, 1, 0, -2
1491505123518,-1, -8, -4, -3, 0, 0, -1, -1
1491505123525,-3, -10, -5, -2, -2, 0, -1, -4
1491505123540,0, -1, -1, 0, 0, 1, 1, -1
1491505123541,-1, -3, -3, 0, 0, -2, 0, -2
1491505123547,-1, 0, 0, -1, -1, -1, -1, 0
1491505123555,0, -4, 1, -1, -1, -2, -1, -1
1491505123556,0, -3, 0, 0, 0, -2, -1, 2
1491505123569,1, 11, -2, 1, -1, -1, 0, 0
1491505123570,-1, -11, -2, 0, -2, -1, -2, 1
1491505123578,-1, -4, -2, -1, 1, 1, 0, 0
1491505123585,-1, -14, -7, -2, 0, -1, 0, -2
1491505123600,1, 11, 2, 0, -1, -1, -1, -3
1491505123607,-1, -2, -1, 0, 0, 1, 1, -1
1491505123615,-2, 1, 1, -2, 0, -3, -2, -3
1491505123629,0, -1, -2, 0, 1, -1, 0, 0
1491505123638,0, 22, 3, 0, 1, -1, -1, -3
1491505123645,0, -5, -1, -1, -1, -2, -2, -1
1491505123660,-2, -12, -4, 0, -2, 0, 0, 0
1491505123667,-1, 14, 6, 1, 1, 1, 0, -2
1491505123675,-2, -7, -4, -1, -3, 0, -1, -3
1491505123690,-2, -6, -1, -3, -2, -2, -3, -1
1491505123699,0, -2, 2, 0, 0, 0, 0, 0
1491505123705,-1, -2, 0, 0, -1, -1, 0, 0
1491505123720,2, 6, 1, 0, -2, -1, -1, -4
1491505123721,0, -3, -4, -1, -1, 0, -2, 1
1491505123727,2, -3, -3, -1, -1, 0, -1, 0
1491505123735,-1, 1, 0, 0, -2, -1, -1, -1
1491505123749,-3, -17, -5, 0, 2, -2, -1, -1
1491505123750,1, 37, 7, 0, -1, -1, -1, -3
1491505123759,-2, -8, -4, -1, -2, -1, 1, -3
1491505123760,0, -4, 0, -1, -1, -1, -1, -3
1491505123772,-2, -12, -4, 0, -2, 0, 1, -1
1491505123780,1, 16, 2, 0, -3, -2, 0, -3
1491505123787,-2, -5, -3, -2, 0, -1, -1, 1
1491505123795,1, -13, -4, 0, -1, 0, -1, 0
1491505123809,0, -1, -1, -2, -1, 0, 0, -3
1491505123817,1, -1, 4, 0, 1, -2, 1, 0
1491505123825,-2, -20, -4, -1, 1, -1, 0, -2
1491505123840,0, -4, -5, -2, -2, 0, -1, -3
1491505123847,-2, -10, -4, -2, 0, -2, 0, -2
1491505123855,0, -3, -3, 0, -1, 0, -2, -2
1491505123869,0, 5, -4, 0, -2, -2, -3, 0
1491505123877,0, -8, 0, 0, 1, -2, 0, -5
1491505123878,-1, -5, -2, -2, 0, 1, 0, -2
1491505123885,-1, -5, -1, -1, -2, 0, 0, 0
1491505123900,-2, 7, 6, 1, 0, -1, 2, 2
1491505123906,-3, -5, -4, -1, -2, -3, -2, -1
1491505123907,0, 3, 5, -1, 0, 0, -1, 0
1491505123915,-1, 0, -4, -2, -1, -2, -1, -1
1491505123929,-1, -5, -4, -2, -2, 1, 0, 1
1491505123937,-1, -3, -1, -1, 0, 0, -3, -1
1491505123945,-1, -7, -6, -1, 1, -2, -2, -3
1491505123960,-2, -8, -4, -1, -1, -1, -1, -1
1491505123967,2, 15, 5, 0, -1, 0, 2, 0
1491505123975,0, 5, 3, -3, -3, -2, -1, 1
1491505123989,-2, 0, 1, 0, -2, -1, -1, -3
1491505123997,-4, -17, -7, -1, 0, 0, -2, -1
1491505124005,-1, -9, -7, -1, 0, -1, -1, -1
1491505124020,1, -2, -3, 0, -1, -2, -3, 1
1491505124027,1, 4, 2, 0, 0, 1, 0, 1
1491505124035,-2, -1, -1, -2, -1, 0, 1, -6
1491505124049,1, 3, 0, -2, 1, -2, 0, 1
1491505124057,-2, -9, 3, 0, 1, -1, -2, 1
1491505124058,1, 6, 0, 0, -2, -1, 0, -4
1491505124065,1, 21, 6, 1, -2, 0, -2, -2
1491505124080,0, -2, -2, 0, -1, 0, 0, -1
1491505124087,-2, -14, -6, -3, -1, -1, -1, 1
1491505124095,-2, -1, 0, -1, -1, -2, -1, 0
1491505124109,0, 1, -2, -2, -1, -2, -1, -1
1491505124118,-3, -8, -1, -1, 1, 0, -1, 0
1491505124125,-1, -5, -5, -1, -1, -2, -2, -2
1491505124140,3, 30, 17, 3, 2, 0, 1, 2
1491505124147,1, 2, -4, -2, -2, -3, -3, -1
1491505124155,-4, 2, 6, -1, -1, -1, -1, -5
1491505124170,-2, -1, 1, -3, -1, -2, -3, 2
1491505124178,-1, -7, -9, -3, -2, 0, -2, -1
1491505124193,-1, -3, -3, 2, -2, -2, -1, -4
1491505124200,-3, -9, -6, 1, 0, -1, -3, -5
1491505124208,0, 21, 7, -1, -1, -1, -1, 0
1491505124215,3, -7, -5, 0, -1, -1, 0, 1
1491505124230,-1, -1, 0, -1, -2, 0, 0, 1
1491505124237,-2, -5, -7, -3, -1, -1, -2, -3
1491505124253,2, -10, 6, 2, 0, 1, 1, -2
1491505124260,1, 20, 6, 3, -1, 0, -1, 4
1491505124268,-3, -12, -7, -3, -1, -2, 0, -3
1491505124275,1, -2, 4, -1, 0, -1, 0, -3
1491505124290,-2, -2, 4, 2, -2, -1, -2, 0
1491505124297,2, 3, 0, -3, -2, -1, 1, 1
1491505124313,-4, -19, -9, -3, -2, 0, 0, -4
1491505124320,-1, -2, 3, 0, -2, -1, 0, 1
1491505124328,2, 26, 8, 3, 1, 1, 1, -2
1491505124335,-2, -3, -8, -3, 0, -1, 0, -4
1491505124350,0, 15, 1, -2, -1, -2, -1, -9
1491505124357,2, -8, -14, -5, 0, -2, 1, 8
1491505124373,-4, -16, -10, -4, 0, -2, 0, 0
1491505124383,-2, -1, 13, 1, 3, 1, 1, -8
1491505124388,-4, -1, 4, -2, -1, 0, 1, 0
1491505124403,-3, 0, -12, -2, -2, -1, -1, 3
1491505124410,1, -1, 4, 2, -1, 0, -2, 0
1491505124417,-3, -10, -3, -2, -1, -2, -1, -1
1491505124418,-2, 11, 6, -1, 2, 0, 0, -6
1491505124433,-2, 10, -1, -4, 0, -1, -1, -3
1491505124440,7, -3, -2, 0, 0, 0, -2, 15
1491505124448,3, -11, -14, 0, 1, 3, 3, 3
1491505124463,-1, -17, 2, 0, -2, -24, -41, -9
1491505124471,1, -13, -3, -2, -2, 1, 0, 1
1491505124478,2, -4, 0, -1, -4, 6, 12, -3
1491505124493,-1, -1, -1, 1, -2, -4, -6, 3
1491505124500,-5, -10, -4, -3, -1, 1, 2, -10
1491505124508,0, 5, 3, -2, -1, 4, 10, 1
1491505124523,2, 14, -2, 1, -1, -1, 2, -3
1491505124530,-2, -11, -7, 0, 1, 0, -3, -15
1491505124537,-2, -6, -5, -2, -3, 1, 1, 5
1491505124553,-2, -6, 0, 0, 0, -5, -7, -2
1491505124560,2, 15, -1, 3, -2, 1, 2, 8
1491505124568,-4, 4, -10, -6, 2, -3, -2, 6
1491505124582,-23, -4, 2, -3, -2, 2, 3, -23
1491505124590,5, 5, -2, -2, -2, 1, -3, 2
1491505124598,4, 2, -5, 2, 1, 0, 0, 3
1491505124613,8, 6, 10, 1, -1, 1, 1, -38
1491505124620,1, -8, -11, -8, 1, 3, 0, 1
1491505124628,-5, -23, -6, 2, 2, 0, 1, -6
1491505124643,-2, -14, -4, 1, -1, -1, -1, -8
1491505124650,6, -16, 8, 3, 1, 0, 1, 17
1491505124657,-8, -6, -2, -1, -2, 0, 1, 13
1491505124673,-8, 7, 12, 3, 0, -2, -1, 8
1491505124681,-3, -22, -15, 0, 0, -1, -2, -6
1491505124688,-4, -9, -22, -6, -4, -2, -4, -1
1491505124703,0, -5, -8, -1, -3, -1, 0, -8
1491505124710,2, 8, 4, 2, 1, -2, -1, 15
1491505124717,-10, -13, -9, -3, -2, -1, -2, -4
1491505124718,4, -6, 3, -2, -2, -2, 1, -1
1491505124733,-3, 3, 12, 3, -2, -1, -2, -6
1491505124740,3, 0, 1, -2, -1, -1, -2, 7
1491505124755,-2, 28, 15, 0, -1, -1, 0, 17
1491505124762,3, 13, 8, 0, -3, -2, -4, -3
1491505124770,4, -30, -17, -4, -2, 1, 1, -2
1491505124778,-5, 25, 20, 3, 1, 1, 1, -13
1491505124793,-15, -2, -12, -5, -3, -1, -6, -17
1491505124800,7, 3, 4, 0, 0, 0, 3, 16
1491505124815,-2, -5, -2, -3, -2, -1, -1, 9
1491505124822,-1, 0, -1, -1, -3, -2, -3, 1
1491505124830,-2, -2, -6, 0, -2, -1, -3, -3
1491505124837,-4, -4, -3, -3, 9, -1, 2, 5
1491505124853,-2, 1, -3, -1, 1, 1, -1, -2
1491505124860,0, -1, 2, 4, -3, 2, 0, -3
1491505124875,0, 32, 6, 1, 1, -2, -1, 4
1491505124882,1, -8, -13, -8, -1, -1, 0, -28
1491505124892,1, -9, -2, 1, -2, 1, 4, 10
1491505124897,-1, 13, 11, 4, -1, -2, 0, 0
1491505124913,-17, -11, 2, 5, 0, 0, -3, -17
1491505124921,12, 0, 13, 3, 1, 1, 3, 7
1491505124935,2, 5, -1, -5, -4, -4, -4, 9
1491505124943,-1, 9, -1, -3, 4, 0, -1, 17
1491505124950,0, -9, -1, -3, 1, 2, 1, -32
1491505124957,-4, -1, -5, -2, -3, -1, -5, -20
1491505124973,-1, -10, -6, -2, 4, -3, -5, -18
1491505124980,3, -2, -2, 4, 1, 2, -1, 0
1491505124995,5, 2, 13, 6, 10, 1, 4, 3
1491505125003,-1, -12, -7, -3, -2, -1, 1, 38
1491505125010,2, -4, -8, -3, -9, 1, 2, 16
1491505125017,-10, -11, -13, -3, -4, 1, 7, 47
1491505125033,11, 35, 3, 0, 1, -2, 3, 32
1491505125040,16, 9, -1, -1, -3, -2, 0, 28
1491505125055,3, 6, 11, 1, -4, -1, -3, -2
1491505125063,-14, 6, 7, 2, 2, -2, -1, -28
1491505125071,-10, -11, -6, -5, -2, 1, -6, -28
1491505125077,0, -15, -1, 1, -7, -3, -2, 27
1491505125093,-3, 5, 17, 3, 1, 2, 2, -32
1491505125101,0, 2, 1, 9, 3, -2, -6, -41
1491505125116,4, -3, -1, 2, 2, -1, 3, 6
1491505125123,6, 8, 4, -4, -1, -2, -3, 12
1491505125131,-5, -9, -4, 0, -1, 0, -4, 11
1491505125132,-6, 5, 2, 0, 2, 0, -2, -4
1491505125137,0, -6, -6, -2, -3, -3, -2, 10
1491505125138,-1, 3, 18, -2, -1, 1, -1, -37
1491505125153,2, 7, 12, 1, -4, -1, -1, 16
1491505125160,-16, -5, -7, -4, -2, 0, 2, -39
1491505125168,11, -21, -22, -8, -2, -2, -1, 20
1491505125183,-6, 28, 8, 2, 0, -1, -3, -21
1491505125190,1, -2, -14, -5, -5, -2, -1, -6
1491505125197,0, -12, -9, 0, 5, 0, 1, -3
1491505125213,4, 4, 11, 5, 1, -2, -1, -2
1491505125220,-9, -2, 1, -6, -1, -1, -2, 3
1491505125228,-9, 2, 1, -2, -1, -2, -4, -3
1491505125242,-11, -12, -17, -1, -2, 0, -4, 20
1491505125250,-8, -28, -25, -5, -2, -1, -1, 12
1491505125257,10, -19, -6, -2, -2, -3, -3, 8
1491505125273,-18, -27, -8, 0, 2, 0, -5, -21
1491505125280,6, 18, 22, 3, -3, -3, -7, 12
1491505125295,4, -13, -5, -2, -6, -3, -2, -5
1491505125303,-11, -33, -31, -8, -3, -1, 0, -11
1491505125311,22, 11, 0, 1, 2, 0, 3, 20
1491505125325,9, -3, 0, 2, 2, 0, -1, -17
1491505125333,3, 3, 2, 1, 0, 0, 3, -2
1491505125340,-20, -4, -5, -2, -3, -2, -2, -20
1491505125356,-1, 0, 1, -5, -1, 0, 0, 0
1491505125362,21, 21, 17, -2, -3, -2, -2, 7
1491505125370,6, 0, 3, -3, -4, 0, -2, -2
1491505125385,1, -10, -22, -2, -1, 0, -2, 4
1491505125394,-4, -1, -5, -2, -4, -1, -1, -5
1491505125400,-2, -26, 2, 1, 1, 1, -1, 7
1491505125415,-11, -3, 12, 2, 1, -3, -3, -14
1491505125422,20, 26, 39, 7, 2, 2, 4, -13
1491505125430,-15, -11, -10, -1, -1, -2, 0, 7
1491505125445,6, 6, 7, -3, -1, -1, 0, -19
1491505125453,2, 6, -2, 0, -3, 0, -1, -4
1491505125460,0, -6, -16, -1, -2, 0, 2, 51
1491505125475,8, 6, 4, -2, 1, 0, -1, -1
1491505125482,-12, -20, 0, 1, -1, -3, -5, -9
1491505125483,-1, 7, -24, -4, -2, -2, -2, -10
1491505125490,11, -2, -4, -3, -1, -1, 1, 12
1491505125505,2, -5, -11, -4, -1, 1, -1, -12
1491505125513,-12, 0, 0, -1, -2, -1, -4, -20
1491505125520,-1, -5, 1, 3, -1, 0, 7, 9
1491505125521,22, 10, 3, 3, 2, -1, 2, 45
1491505125535,-16, -1, -6, -1, 0, 0, -1, -19
1491505125543,-5, -7, -9, -5, -4, -2, -3, -17
1491505125550,-7, -26, -13, -7, -1, -2, 1, -3
1491505125565,-13, 40, 30, 10, 1, 1, 0, -21
1491505125573,-8, 6, -16, -2, -2, -1, -5, -2
1491505125580,-3, -17, -6, -1, 0, -1, -3, 3
1491505125595,-3, -15, 10, 3, -1, 0, 2, -2
1491505125603,19, -4, -8, -6, -4, -2, -2, -28
1491505125610,22, 9, 2, 2, 2, -2, -3, 3
1491505125625,-26, -10, -1, -1, -2, -2, -4, 1
1491505125633,0, -3, -9, -3, -2, -1, -4, 1
1491505125640,17, 40, 10, 0, 0, -1, 1, -6
1491505125655,1, -1, 5, 0, -2, 1, 1, 0
1491505125663,-14, -27, -14, -2, 1, 2, 1, 8
1491505125670,-15, 1, 4, 0, 2, 1, 1, -20
1491505125685,-7, -3, -1, -3, -3, -3, -1, -22
1491505125693,-3, -4, 6, 3, 0, -1, -2, -1
1491505125700,-10, -29, 0, 3, 0, -1, 2, 7
1491505125715,-5, -10, -9, -2, 7, -1, 1, -8
1491505125723,4, -1, 2, -2, 2, 0, 0, -2
1491505125731,0, 9, 14, -1, -3, -1, 0, -2
1491505125745,5, -7, -2, 2, -1, -1, -4, -4
1491505125753,9, 8, 0, -2, -1, -1, 2, -2
1491505125760,22, 56, 15, 2, 0, 1, 1, -4
1491505125775,-4, -18, -3, 0, 0, -4, -4, -13
1491505125776,8, 22, 2, 1, -2, 0, 1, 19
1491505125783,-14, -9, -3, 1, 1, 3, 0, -6
1491505125790,4, -19, -14, -5, -1, 0, 0, 13
1491505125806,-10, 2, 24, 3, 1, 2, 1, -2
1491505125814,-8, -1, -8, -1, -2, -2, -4, -1
1491505125820,-1, -8, -15, -1, -2, -3, -2, -16
1491505125835,-9, -9, -1, 0, -2, 1, 1, -2
1491505125842,5, -19, 1, -4, -6, -3, -2, 11
1491505125850,8, 4, 0, 0, -1, -2, -2, -10
1491505125865,-10, -15, -9, 1, 2, 0, 1, 5
1491505125873,-3, 1, 37, 5, 2, 1, 2, -2
1491505125880,-10, -2, -11, -3, 0, -2, -4, -16
1491505125895,-1, 1, -4, -2, -1, 0, -4, -9
1491505125902,21, 28, -7, -7, -2, -3, 1, 8
1491505125910,5, 55, 20, 3, 1, -2, -1, 7
1491505125925,-14, -18, -12, -2, 1, 1, 1, 2
1491505125933,1, 0, -3, -1, 0, 0, 0, 2
1491505125940,-12, -2, 2, -1, 0, -3, 0, 3
1491505125955,11, 2, -3, 11, 0, 2, 7, -6
1491505125963,-8, -12, -2, 0, -3, 1, 0, -5
1491505125970,10, -4, -10, -4, -2, 1, 1, 6
1491505125985,-3, -5, 15, 4, 1, -2, -2, 0
1491505125993,-4, 22, 17, 1, -2, -1, -1, 5
1491505126000,-2, 35, 4, -4, -2, 0, -3, 7
1491505126015,3, -8, -8, -3, 0, -2, -2, 5
1491505126023,-4, -16, -8, -1, 0, 0, -2, -8
1491505126030,-8, -12, -9, -4, -1, -2, -2, -11
1491505126045,3, -21, -19, -5, -3, -2, 0, 10
1491505126053,-11, -24, -8, 0, -2, 0, 1, -2
1491505126060,3, -4, -6, 3, 4, 2, 4, 25
1491505126075,-5, -6, -2, -3, -4, -2, -7, -7
1491505126082,-3, 6, 10, -2, -5, -1, -2, -3
1491505126090,-10, -7, -6, -2, 0, 0, 1, -5
1491505126105,0, -33, -16, -4, -2, -1, -3, -22
1491505126113,-6, -8, -10, -3, -1, -2, -5, -3
1491505126120,-16, -26, -9, -2, -1, -5, -8, -31
1491505126135,5, -4, -7, -2, 0, 1, 4, 4
1491505126157,-19, -7, 4, 0, -1, 1, -3, -25
1491505126165,2, 18, 8, 5, -1, 1, 0, -6
1491505126172,12, 16, 9, -3, 1, 0, 3, 6
1491505126173,8, -9, 20, 1, 2, -2, -4, 1
1491505126180,7, 27, 19, 5, 0, 1, 2, 16
1491505126195,1, -5, -14, -6, 3, 1, -1, -3
1491505126202,7, 9, -1, -3, -1, 0, -2, -11
1491505126210,0, 2, -4, -1, -6, -4, 4, -2
1491505126225,1, -13, -9, -4, 0, 0, -1, 1
1491505126234,-8, 14, 5, 1, 3, 2, -1, -47
1491505126247,-2, -3, -3, 0, -3, -2, -1, 3
1491505126255,-3, 5, 36, 3, 3, 1, 0, 12
1491505126262,9, 11, 0, -1, 0, -1, 0, 7
1491505126277,-2, -10, -20, -2, 0, 1, 2, 15
1491505126285,-3, -3, -1, -2, -2, -1, -2, -7
1491505126300,-2, -8, -9, -1, -1, -2, -2, 12
1491505126307,15, 11, 2, 3, -2, 0, -2, 1
1491505126315,8, 14, -13, -3, -1, -1, -1, -1
1491505126329,-8, -7, -7, 0, 1, 0, 1, 0
1491505126337,15, 4, 1, 1, -1, 0, 0, 22
1491505126345,-6, -14, -4, 0, 1, 0, 2, 16
1491505126353,-3, 4, -5, -4, -3, -2, -2, -7
1491505126367,0, -16, -5, -5, -3, -3, -1, -4
1491505126375,0, -8, -3, -1, -3, -1, -4, 3
1491505126383,-6, 3, 0, 4, 2, 0, -3, 9
1491505126397,-3, -17, -8, -2, 3, -3, -3, 0
1491505126405,-13, 13, 1, -3, -3, -1, 0, -14
1491505126413,-15, -12, -5, 2, -2, -2, -1, -16
1491505126427,-2, -2, 6, 3, 1, -3, -4, -35
1491505126435,-1, 2, -1, -2, -2, -1, 0, 16
1491505126444,3, 30, 13, 7, 3, 1, 1, 8
1491505126457,10, 7, -7, 1, 0, -1, 1, 16
1491505126465,-20, -21, -13, -2, 0, -2, 1, -4
1491505126473,-4, -6, -1, -2, -1, -1, 0, 7
1491505126487,6, 15, 7, -1, -2, 1, 1, 16
1491505126495,-3, -4, 8, 0, 0, 0, -3, -12
1491505126502,4, -27, -11, -1, -1, -1, -2, 3
1491505126518,1, -1, -4, 1, -2, -1, -3, -16
1491505126525,13, 2, -6, -6, -2, -1, -2, 32
1491505126533,8, 9, 22, 3, 0, 0, 2, 31
1491505126547,0, 41, 2, 4, 0, 0, 4, -30
1491505126555,-10, -20, -6, -5, -1, -1, -1, -13
1491505126562,7, 13, 8, 0, -2, -2, -2, -7
1491505126577,-7, 4, -1, -2, 5, 0, -4, -7
1491505126585,5, -24, -5, -6, -2, 1, -1, 2
1491505126593,2, -13, -9, -2, -2, -4, -4, -15
1491505126607,1, -10, -7, 2, 0, 0, -1, 2
1491505126615,2, -6, -6, -2, -4, 0, 4, 61
1491505126622,-4, 4, 6, -3, -3, -1, 1, -22
1491505126637,10, -4, -8, -1, -2, -3, -2, -4
1491505126645,-3, 14, 2, -1, 1, 1, 0, -5
1491505126653,-9, -3, -6, -2, -3, -2, -2, -14
1491505126668,-8, -18, -8, -3, 1, -2, -4, 3
1491505126675,9, 17, 0, -2, -2, 0, 0, -21
1491505126682,1, 3, 6, -1, -2, -3, -2, -4
1491505126698,6, -2, 4, 1, -3, -3, -2, -2
1491505126705,10, -5, -7, 1, 4, 1, 2, 23
1491505126713,-2, 8, 8, -1, -1, 1, 0, -7
1491505126729,-9, 6, 2, 0, -1, -2, -3, -18
1491505126737,-6, -6, -9, -1, 1, 1, -1, -8
1491505126743,-11, -28, -18, -3, -3, -1, -4, -12
1491505126757,-10, -25, -10, -4, -1, 0, 0, -2
1491505126765,3, 0, 3, 1, 0, 0, -1, 7
1491505126773,2, 13, 13, 2, 3, -1, 0, -6
1491505126787,4, -9, -7, -3, -2, -1, 0, 2
1491505126795,-6, -18, -12, -2, 0, 1, -4, -22
1491505126803,10, 26, 23, 5, 1, 0, 2, 23
1491505126817,2, 13, 7, 1, 0, -1, 0, 0
1491505126825,2, -13, -6, 0, -2, -3, 0, 0
1491505126833,2, 10, -1, -3, 3, 0, -3, 3
1491505126847,-6, 4, -7, -6, -2, -1, 0, -6
1491505126856,5, 3, -5, -3, -6, -3, -2, 6
1491505126862,-5, -19, -2, -2, -4, -1, -3, -1
1491505126877,-5, -12, 16, 1, 0, -2, 1, 3
1491505126885,6, 13, 12, -1, -1, 0, 1, 54
1491505126893,-6, 9, -2, 0, -2, 0, -1, 9
1491505126907,10, 4, 2, 1, 0, 0, -1, -16
1491505126915,-1, -2, 6, 3, 2, 1, 2, 9
1491505126922,-9, -16, -13, -7, -3, -3, 0, -4
1491505126938,-1, -2, -2, 3, -2, -1, -1, -4
1491505126945,-3, -15, -1, 1, 6, -1, -3, -6
1491505126953,-3, 27, 1, 1, -2, -2, 1, 14
1491505126967,-22, -6, 1, -2, -4, 0, -3, -4
1491505126975,1, -3, -10, -4, 1, 1, -1, -5
1491505126982,-2, 5, 0, 0, 0, 2, 1, -7
1491505126997,4, -7, -1, -1, -1, 1, -4, 1
1491505127005,2, 0, -6, 1, 1, -1, -4, -19
1491505127013,1, -15, -7, -1, -1, -2, -4, 27
1491505127027,6, -11, -12, -4, -3, -2, -3, 5
1491505127035,-8, 10, 11, 2, 2, 0, 1, -26
1491505127042,-5, 14, 3, -3, -3, -1, 3, 6
1491505127057,-9, -4, 1, 1, -3, 0, 1, -27
1491505127067,3, -23, 1, 1, -2, 0, -3, -14
1491505127073,5, 7, 2, 0, -2, -1, -2, -20
1491505127088,-6, 5, -1, -2, 3, 2, 3, 2
1491505127095,10, -2, -7, -2, 0, 1, 0, 38
1491505127102,-2, -9, -9, -5, -2, 0, -2, 5
1491505127118,1, -6, -1, -5, -2, 0, 2, -6
1491505127125,-2, 8, 4, 3, 1, -2, -4, 5
1491505127133,3, -6, -2, 2, 5, 0, -1, -4
1491505127147,1, 21, 0, -2, 2, 0, -2, 7
1491505127148,7, 6, 0, 1, 1, 0, 1, -5
1491505127156,8, 0, -1, -1, -2, -2, -2, 11
1491505127169,5, 13, 2, 0, -2, -3, -2, 2
1491505127178,-4, -7, 0, -1, -3, -2, -3, -9
1491505127185,3, 11, 9, 5, -1, -1, -3, 8
1491505127200,-1, 2, -5, -4, -2, -1, -2, 7
1491505127207,-4, -13, -8, -3, -5, -3, -1, 5
1491505127208,-2, 11, 0, 4, 4, 2, 3, -5
1491505127215,-4, 5, 3, 4, -1, 1, 0, -1
1491505127229,13, -11, -14, -10, -5, -1, 2, 1
1491505127237,6, 16, -7, -7, -3, -1, 1, -4
1491505127245,-2, -1, 6, 1, -2, -3, 0, -8
1491505127260,-8, -11, -7, -4, 2, 0, 2, 4
1491505127267,0, -1, -6, -7, -4, -2, -1, -12
1491505127275,-3, -7, 3, 3, -1, 1, 0, -8
1491505127289,-5, -6, 2, 3, 0, -2, -1, 3
1491505127297,4, 5, -2, -2, -1, 0, 0, -1
1491505127305,-5, -3, 3, 4, -1, 2, 0, 9
1491505127320,-2, 12, 9, -1, -3, 0, -1, 16
1491505127327,-3, 4, -3, -2, 0, -2, -4, -10
1491505127335,-4, -6, -9, -2, -1, 0, 2, 6
1491505127349,20, 55, 43, 6, 2, 0, 3, 11
1491505127357,-7, -15, -1, 1, -4, -2, -4, 3
1491505127365,-5, 6, 0, 1, 6, -1, 1, -4
1491505127366,-9, -20, -14, -5, -4, 1, 0, -11
1491505127384,2, 6, 11, 4, -1, -3, -5, 24
1491505127387,-7, -9, -10, -4, -1, 0, -3, 1
1491505127395,-7, -14, -4, -1, 0, -1, -2, -14
1491505127409,-10, 13, -6, 3, 1, 1, 2, 19
1491505127417,9, 7, 11, 1, -3, 0, -2, 20
1491505127418,-7, -14, -8, -1, 1, -2, -2, -38
1491505127425,-4, -14, -7, -1, 0, 1, 0, -17
1491505127442,-5, -16, -4, 0, 1, 0, -4, -2
1491505127443,-1, -7, -4, -2, 0, -1, -1, 18
1491505127447,-1, -19, 1, -3, -6, -4, -10, 27
1491505127455,-6, -24, -1, -2, 9, 0, 3, -17
1491505127469,-5, -4, 1, 4, 1, -2, 2, -2
1491505127477,-3, 2, -6, -3, -8, -4, -2, -21
1491505127488,-5, -9, -7, -3, 0, 1, 5, 38
1491505127489,4, 5, 7, 2, -2, -3, -6, -27
1491505127500,4, 5, -2, -2, -2, 0, 0, 8
1491505127507,-1, -10, -6, -5, -3, -1, 2, -11
1491505127515,5, 51, 22, 6, 3, 5, 9, -23
1491505127529,-7, -9, -6, -4, 0, 0, 1, 7
1491505127537,6, 16, 5, 1, -1, 0, 0, 7
1491505127545,15, 47, 19, 2, -2, 1, 5, 6
1491505127560,1, -6, -5, -2, 2, -1, -7, 17
1491505127569,-6, -17, -6, -3, -2, -1, -3, -9
1491505127583,-7, 1, -2, -2, 1, 0, -1, -16
1491505127589,-5, -13, -7, -1, 1, 1, -2, 4
1491505127597,3, -11, 0, -3, -3, -3, 0, 9
1491505127611,-1, -3, -3, -1, 0, -1, -2, 3
1491505127612,7, 0, -5, 0, -4, -1, 2, 17
1491505127620,9, -8, -2, 0, -1, -1, -1, 18
1491505127627,-2, -1, -4, -2, 3, -1, -5, 25
1491505127635,-4, -5, -7, -4, -5, -1, 0, -2
1491505127650,3, -4, -3, 0, 1, -2, 1, -10
1491505127657,-2, -5, -4, -2, -1, 0, 0, -8
1491505127665,-2, -3, -3, -2, -1, -1, -1, 5
1491505127680,2, 0, 1, -1, -1, -2, 1, -3
1491505127687,0, -4, -4, -3, -2, -2, -2, 4
1491505127696,-3, 7, 0, -1, -1, 0, 0, 8
1491505127709,-5, -10, -6, -2, -2, -2, -1, -13
1491505127717,0, 52, 18, 2, -3, -1, -1, 8
1491505127725,-10, -4, -1, -2, 0, 0, 2, 5
1491505127740,2, -20, 8, 3, 0, 0, -1, 11
1491505127747,3, -16, -6, -3, -1, -2, -3, 12
1491505127756,-5, -30, -13, -4, -1, -1, -2, 3
1491505127769,0, -18, 1, -2, 1, 0, -2, -5
1491505127777,7, 8, 4, -2, -1, -1, -2, 6
1491505127786,3, 41, 12, 4, 0, 0, 0, -8
1491505127799,-4, 5, 23, 3, -1, 0, 2, 10
1491505127800,10, -6, -9, -2, -1, -2, -2, -9
1491505127807,1, -6, -11, -4, -2, 0, -1, 6
1491505127815,-4, -3, -2, -1, -1, -1, -2, -2
1491505127829,1, 14, 6, 0, 0, -1, -1, -3
1491505127837,-6, -11, -8, -2, 0, 0, -2, -10
1491505127845,-2, 2, -3, -2, 0, -2, 0, -3
1491505127860,1, 27, 3, 1, 0, 0, -1, -4
1491505127867,0, 10, 8, 0, 1, 0, -1, -3
1491505127868,1, -5, 1, 0, 0, -1, 0, 5
1491505127875,-5, -14, -4, 1, -1, 0, 2, 6
1491505127889,0, -3, -5, -3, -2, -1, -1, 1
1491505127897,0, 18, 18, 3, -1, -1, -2, -1
1491505127905,-1, -4, 1, 0, -1, -2, 1, -2
1491505127920,-2, 7, -1, -1, 0, 0, -3, -2
1491505127921,-4, -10, -6, -3, -2, 0, -2, 8
1491505127927,-1, -5, 1, 1, 1, 0, -2, -1
1491505127936,1, -7, -6, -1, -2, -2, 0, -1
1491505127950,-3, -5, -5, -1, -2, 0, -3, -5
1491505127958,0, -5, -2, 1, -1, 1, 1, 2
1491505127965,0, -6, -3, 0, -1, -3, 0, 2
1491505127980,0, -8, -2, -2, -1, -2, 1, -3
1491505127988,-1, -7, -3, -2, -1, -2, -1, -9
1491505127999,0, -3, -4, -2, -1, -1, -2, -6
1491505128009,-1, -5, -1, 1, -2, 0, 0, -1
1491505128018,-2, 10, 7, 1, 1, -1, 0, -8
1491505128025,-3, 1, -1, -2, 1, 1, 0, 1
1491505128040,-2, -3, 0, -1, 1, -1, -1, 3
1491505128047,0, -3, -4, -2, 1, -1, -2, 0
1491505128055,-2, -14, -10, -4, 0, -1, -1, 2
1491505128070,-2, -10, -4, -1, -3, 0, -2, -7
1491505128077,3, -3, -3, -1, 0, -1, -1, 0
1491505128092,-1, 5, 0, 0, -1, 0, -1, -4
1491505128100,-2, -10, -12, -1, -4, -1, 1, -2
1491505128107,-1, 3, -2, -1, 1, -1, -1, 3
1491505128122,2, 6, 1, 1, -1, -1, 0, 0
1491505128129,0, 1, 1, 1, -3, 0, -1, 0
1491505128137,-3, -6, -5, -1, -1, 0, -5, -2
1491505128151,3, 3, 1, -2, 0, 0, 1, 0
1491505128160,0, -4, -1, -3, 0, -1, -1, -3
1491505128167,-1, 8, 3, 0, -1, -2, -3, -5
1491505128182,1, 4, 6, 0, 0, 1, -1, 1
1491505128189,1, 5, 10, 4, 0, 2, 1, -2
1491505128197,-2, 0, 1, 0, 0, -1, -1, -4
1491505128212,1, 9, 1, 0, 0, -2, -1, -1
1491505128220,-4, -3, -5, 0, -2, -1, -3, -1
1491505128227,-1, -4, -5, 0, 0, 0, -3, -3
1491505128242,-2, -5, -2, -1, -2, -1, -2, -3
1491505128250,0, -1, -1, -1, -1, 2, -2, -4
1491505128257,-2, -4, -4, 0, -1, 1, 0, 1
1491505128258,-1, 0, 0, -1, -2, -2, 0, -3
1491505128272,-3, -7, -5, -2, -1, -1, 3, 6
1491505128280,4, 28, 2, 1, -2, 2, 1, 9
1491505128288,1, -5, -2, -1, 1, -1, 0, -3
1491505128302,-4, -2, -1, 0, 1, 0, -1, -1
1491505128309,1, -4, -2, 2, 0, -2, -3, 6
1491505128317,0, 9, 2, -2, -1, 0, -1, -2
1491505128318,0, -7, -1, 0, 0, -1, -1, -13
1491505128332,-1, -1, 1, -1, -1, -1, -2, -3
1491505128340,0, -6, -1, 0, -1, -2, 0, -5
1491505128347,-4, -11, -9, -5, -1, -1, -1, -2
1491505128365,-2, -5, -3, -2, -2, -2, -2, 38
1491505128369,-3, -5, -4, -2, -1, -1, -1, 7
1491505128378,-1, -7, -5, -3, 0, -2, -1, -26
1491505128392,-1, -5, -2, -3, -1, 0, 1, -13
1491505128400,-2, -4, 2, 0, -1, 1, 0, -2
1491505128407,1, 9, 4, 2, -1, -1, -3, -19
1491505128423,1, 1, 0, 0, -1, -1, 1, 8
1491505128429,1, 0, 0, 0, 0, 0, -3, -2
1491505128437,3, 13, 14, 1, 1, 1, -1, -17
1491505128452,2, 32, 9, 2, -1, -3, 1, 13
1491505128460,-2, -5, -6, -4, 0, 0, -1, -9
1491505128467,0, 7, 8, -1, -1, -1, -1, 6
1491505128482,0, -21, -6, 0, -1, -1, -2, 2
1491505128490,-3, -16, -9, -3, -4, -2, -1, -5
1491505128498,-2, -11, -4, -2, -1, -2, -1, 0
1491505128512,2, 15, 14, 3, 0, 3, 2, -3
1491505128520,5, 3, -5, 1, 0, -1, -2, 5
1491505128527,-5, -7, -5, -1, 0, 2, 1, 0
1491505128542,-3, 1, -1, -2, 0, -1, -1, -3
1491505128549,-1, -11, -6, -1, 1, -1, -4, -2
1491505128557,3, 25, 1, 0, -2, -1, -1, -1
1491505128571,-2, -12, -5, -1, -1, -1, -2, 1
1491505128580,-4, -3, 9, 0, 0, 0, 1, -4
1491505128587,2, 7, 1, -1, -1, -1, 1, 2
1491505128603,-3, -5, -4, -1, -2, 0, 0, 3
1491505128609,-1, -8, -5, -2, -3, -1, 0, -4
1491505128617,-2, 10, 10, 3, -1, -2, -1, -1
1491505128632,-6, -16, -10, -2, -1, -2, -1, 1
1491505128640,-1, 13, -5, -2, -1, -2, 0, -3
1491505128647,-2, -11, 3, 1, 0, -2, -2, -1
1491505128663,-1, 3, -2, -1, 0, 0, -1, -2
1491505128669,-1, 13, 4, 1, 1, 1, -1, -3
1491505128677,5, 8, 9, 0, 0, -2, -2, -2
1491505128691,-3, -7, -9, -2, 1, -1, 0, -6
1491505128692,1, -4, -6, -1, -3, 0, -4, 1
1491505128700,-4, -10, -8, -2, -1, 1, 0, 0
1491505128709,1, -1, 0, 1, -1, -1, 2, -3
1491505128729,2, 8, 0, 1, -1, 1, -1, -1
1491505128737,2, 11, 4, 1, 1, 1, 1, 1
1491505128738,-2, -13, -9, -1, -2, 0, -2, -3
1491505128752,-1, -26, -10, -3, -3, -2, -2, -2
1491505128760,0, 0, 1, -1, -2, -1, -3, 2
1491505128767,-2, 0, -1, 0, 1, -1, 1, -1
1491505128783,-2, -3, -1, -1, 0, -1, 1, 2
1491505128789,0, 10, 5, -2, 0, -2, 1, 0
1491505128797,1, -9, -4, -3, -2, -1, -1, 2
1491505128811,-3, -5, -3, -2, -1, -2, -1, -3
1491505128820,-2, -7, -4, -2, -1, -1, 0, -4
1491505128827,4, 32, 23, 3, 1, 1, 1, 3
1491505128828,-1, -5, -8, -4, 0, -2, -4, -3
1491505128842,0, -4, -6, -1, 1, -3, 3, 2
1491505128856,1, 12, 5, 0, 0, -1, 1, -1
1491505128858,2, 8, 4, 1, -3, 1, -3, -1
1491505128871,-3, -4, -5, -2, 0, 0, -2, -6
1491505128872,1, 4, 0, 1, 1, 1, -1, 3
1491505128880,-2, 3, -1, 0, -2, 0, 0, -1
1491505128894,1, -3, 2, 0, -3, 0, -1, -2
1491505128902,-3, 17, 6, 0, -1, 1, -2, -3
1491505128909,0, -2, -4, -1, -1, 0, 1, -2
1491505128925,-6, -14, -10, -4, -1, -3, -1, -4
1491505128931,-4, 9, 8, 2, 0, -2, -5, -6
1491505128940,-2, -6, 2, 0, 0, -1, 1, -1
1491505128947,1, -2, -2, 0, -1, 0, 2, 0
1491505128963,0, -4, -1, 1, 1, 1, -2, -2
1491505128969,-2, -2, -9, -3, -1, 1, 1, 0
1491505128977,1, -2, -2, -1, -2, -2, 0, -1
1491505128992,-4, -19, -6, -2, -2, 0, 1, -2
1491505129000,1, -9, -7, -1, 1, 1, 1, -3
1491505129007,-1, -3, 2, -1, -1, -3, -2, -4
1491505129022,-1, -2, 0, -1, 0, -1, -2, 1
1491505129029,1, 9, 7, 0, -1, -3, -2, 1
1491505129045,-1, 0, -3, -1, -2, -1, -3, -2
1491505129052,2, -7, 0, -1, 0, 1, 1, -1
1491505129060,1, 24, 19, 2, 0, 1, -1, 3
1491505129074,-1, 6, 0, -1, 0, 0, -1, -3
1491505129082,0, 4, 0, 1, 0, -3, 0, -3
1491505129089,0, -10, -5, -2, 0, -1, 0, 0
1491505129105,-2, -8, -6, -2, -1, -1, 0, 1
1491505129111,-1, -2, -4, 0, -2, -1, -1, -4
1491505129120,3, -5, -4, 0, -2, 0, 0, 0
1491505129134,-1, -6, -1, -2, 0, -1, 0, 0
1491505129143,0, 11, 11, 0, 0, -1, 1, -2
1491505129150,-2, 11, 8, 1, -1, 0, 1, 2
1491505129165,-1, -9, -6, -1, 1, 0, 0, 1
1491505129174,1, 13, 0, -1, -1, -2, -1, 4
1491505129180,-3, -13, -5, -3, -1, -2, -1, -3
1491505129195,-4, -6, 0, -4, 0, -3, 0, -3
1491505129202,2, 2, -2, -3, -2, -2, -1, -3
1491505129211,-1, -6, -3, 0, -2, 0, -1, -2
1491505129225,-2, 1, 13, 1, 0, 0, -1, -2
1491505129233,-1, 5, -5, -2, -1, -1, -3, -4
1491505129240,-2, -5, -6, -1, -1, -1, 0, -1
1491505129255,0, -2, 0, 1, 0, 1, -2, -1
1491505129269,2, 9, 3, 1, 0, -2, -2, 3
1491505129271,0, -9, -5, 1, 0, -2, -1, -1
1491505129285,-4, -15, -10, -2, -2, -2, -2, -6
1491505129293,1, -1, -5, -2, -1, 0, -1, -2
1491505129300,1, -5, -4, -1, 1, -2, -2, -2
1491505129315,0, 20, -1, 0, 0, 2, 0, 0
1491505129323,1, 20, -4, -2, -2, 2, -1, -1
1491505129331,1, -10, -4, -1, -2, 0, -1, 3
1491505129345,-1, -4, -4, 0, -2, -2, 0, 0
1491505129353,-3, -7, 1, -2, 0, 0, 0, 0
1491505129360,-2, -4, 0, 1, 0, -1, -1, -3
1491505129375,0, -5, -7, -1, -1, -1, -2, 1
1491505129376,-2, -5, 0, -1, 0, -2, -1, -2
1491505129385,6, 41, 20, 2, -1, 0, 3, 4
1491505129390,0, 4, 0, 0, -2, 0, -1, -1
1491505129405,-2, -9, -6, -1, -3, -1, -2, -5
1491505129413,-3, -1, 5, 0, 0, 0, -1, 0
1491505129420,-6, -22, -7, -3, -1, -1, -1, -1
1491505129435,-1, -5, -6, -2, 0, -1, -2, -3
1491505129444,-2, -2, -2, -2, -2, -1, 0, 1
1491505129450,-2, 23, 6, 1, -1, -2, -5, -6
1491505129465,-1, -3, -2, 0, 1, 1, 1, 1
1491505129474,2, -6, -6, 0, -1, -2, 0, -2
1491505129480,-3, -2, -6, -2, -1, 0, 2, -4
1491505129497,-1, 3, -2, -2, -2, 0, 0, -2
1491505129503,-1, 7, 3, -1, -2, -1, 0, 0
1491505129511,0, 3, -1, 0, 1, -2, 0, -1
1491505129512,0, -2, 1, -2, -3, 0, -1, 0
1491505129526,-2, -5, -4, -1, -1, 0, -1, -3
1491505129533,2, -6, -3, 0, -1, -1, 0, 0
1491505129540,1, -10, -4, -3, 0, 0, -3, -1
1491505129555,3, 1, 11, 0, 2, -2, -1, 2
1491505129563,0, -14, -6, -1, 0, -1, -4, -4
1491505129571,-1, 14, 0, -2, 2, 0, 0, 3
1491505129585,0, 4, 1, 1, 0, -3, -3, -4
1491505129593,-1, 1, -3, -2, 1, 0, 0, -6
1491505129600,-1, -7, -3, 0, -2, 0, 1, 0
1491505129615,-2, -9, -4, -2, -1, -1, -4, -4
1491505129623,-2, -8, -4, 0, -2, -1, -1, -4
1491505129637,-2, -10, -5, -1, -2, 0, 0, -1
1491505129645,-1, 14, -1, -3, 1, -1, -2, 1
1491505129653,-2, -7, -2, 0, -1, 1, -1, -2
1491505129660,-2, -9, 1, -2, -3, -1, -1, -1
1491505129675,2, 2, 0, -2, -1, -1, 1, -1
1491505129682,-4, -1, 2, -4, 0, 0, 0, -3
1491505129683,-1, 1, 1, -1, 1, 1, -1, 0
1491505129697,0, -1, -3, 0, -2, -1, -1, 0
1491505129705,0, -4, -8, -2, -1, -2, -2, -2
1491505129713,-1, -3, -1, 1, -1, -1, 0, 0
1491505129720,-1, -3, 3, -1, 0, -2, 1, -3
1491505129735,-2, -7, 0, -2, -1, -2, 0, 0
1491505129742,-2, -4, -1, -1, 0, -1, -3, -5
1491505129757,0, -4, -6, 1, -2, -1, -2, 1
1491505129758,-2, 2, -1, 0, 0, -1, 1, -2
1491505129765,-2, 3, 0, 0, 1, 1, -1, 3
1491505129773,-3, 3, -2, 0, -2, -2, -3, -4
1491505129779,0, 5, -1, 0, 1, -2, 0, 1
1491505129780,0, -2, 1, 1, -1, -2, -1, 1
1491505129795,2, 1, -1, -1, 0, 0, 0, 4
1491505129802,0, 7, 9, -1, -3, 0, -1, 0
1491505129817,-1, 4, 1, -2, 0, -1, -1, 0
1491505129824,-2, -8, -7, -4, -2, -1, -2, 0
1491505129834,-1, -1, 0, -2, -2, -1, 0, 1
1491505129842,0, 2, -2, 0, -1, -1, -1, -1
1491505129855,1, -3, -1, -1, -1, -1, -2, -2
1491505129862,-2, -3, -1, 0, 2, -1, -2, -3
1491505129878,1, -7, 2, -1, 0, 1, 1, -2
1491505129885,0, -2, -1, -1, -1, -2, -1, -2
1491505129893,-1, 6, 14, 1, 2, -1, 0, 1
1491505129899,0, 5, 3, 1, 1, 1, -1, 0
1491505129919,-1, 5, -5, -2, -1, -1, 0, -2
1491505129922,-1, -1, -3, 0, -2, -1, 1, 0
1491505129937,2, -7, -5, 0, -3, -1, -2, -4
1491505129945,1, 0, -4, 0, -1, -2, 0, -2
1491505129953,-2, -1, -3, -1, 1, -1, 0, -1
1491505129967,1, -1, 0, -2, -1, 2, 1, -3
1491505129975,-1, -3, -4, 1, 0, -2, -4, -4
1491505129982,3, 23, 16, 2, -1, 0, 2, 2
1491505129997,-3, -7, -5, -3, -2, -1, -1, -2
1491505130005,1, -2, -6, -2, 0, -1, -2, -1
1491505130013,-1, 3, 2, 2, 2, 1, 1, 1
1491505130027,-1, -3, -3, -1, -2, -1, -2, -4
1491505130035,2, 28, 9, 1, -2, -1, -1, -2
1491505130042,-1, -6, -2, -1, -2, -1, -1, -1
1491505130057,-2, -14, -10, -2, -2, -1, -3, -3
1491505130064,3, -1, -5, -1, -2, 0, 0, -2
1491505130073,-1, -15, -1, -3, 0, 0, -2, -3
1491505130087,2, 16, 7, 1, 2, -1, -1, 0
1491505130095,-1, -3, -4, -1, 0, -1, 1, -4
1491505130102,-2, -13, -2, 0, -2, -2, 0, 0
1491505130117,1, 26, 4, 0, 0, 0, 1, 0
1491505130125,0, -11, -2, -2, 0, -1, -3, -1
1491505130126,-2, -2, -2, -2, 1, -1, 0, -1
1491505130140,-1, -12, -6, -3, -3, -1, -3, -2
1491505130147,-3, -13, -14, -3, -2, 0, -4, 1
1491505130163,-2, -11, -4, 0, -2, -1, -2, 0
1491505130177,2, 11, -1, 1, -2, 0, -2, 3
1491505130185,-1, -14, -3, -2, -1, -1, -1, -3
1491505130193,1, -9, 0, -1, 1, 1, 0, -4
1491505130207,-1, -22, -6, 0, 1, -2, -2, -1
1491505130215,-6, -8, -3, -2, -2, -1, -1, 1
1491505130222,-1, -3, -3, -1, -1, 1, 1, -1
1491505130237,-3, 11, 15, 2, 0, -1, -3, -2
1491505130244,-2, -3, -7, -2, 2, -2, 2, -3
1491505130245,0, 6, 1, -2, -2, -3, -1, -2
1491505130260,1, 6, 2, 1, -2, 0, -1, 3
1491505130267,0, 6, 4, 0, 0, -1, -1, 2
1491505130276,-1, -11, -3, -2, -2, 0, -2, 1
1491505130282,-2, 0, 0, 1, -2, 0, -3, -3
1491505130297,0, -11, -4, -1, -2, -1, 1, 0
1491505130306,1, 14, 5, 0, 0, -1, -2, -1
1491505130312,-3, -13, -3, 1, -1, -1, -2, -1
1491505130313,0, -10, -4, -1, 1, -1, -1, -3
1491505130327,1, -2, -3, -2, -1, 0, 1, 1
1491505130328,-1, -6, -1, 0, -1, -2, 0, -3
1491505130336,1, -10, -5, -1, 0, -2, 0, 1
1491505130342,-3, 1, -1, -2, 2, -1, 0, 2
1491505130357,1, 3, -2, -1, -3, 0, -1, -2
1491505130365,-1, 11, 10, 1, -1, 1, -2, 0
1491505130373,-4, -3, -3, -1, 0, 0, 0, 0
1491505130387,-1, -2, -4, -1, -2, 0, -2, 1
1491505130395,1, 2, 2, 0, 1, -2, 0, -3
1491505130402,1, 1, -1, -1, -1, -1, 1, -1
1491505130417,-3, 3, -4, 0, -1, -1, -1, -2
1491505130425,-1, 0, -1, -1, -2, -2, -2, -5
1491505130433,1, 1, -2, -1, -2, -3, -3, -1
1491505130448,-3, -13, -5, -1, -1, -2, 0, -1
1491505130455,-1, 24, 5, 1, 0, 2, -2, 0
1491505130463,2, -5, -2, -2, -2, 0, 0, 0
1491505130477,-1, -6, -3, -2, -1, -1, -1, -2
1491505130484,1, 5, 1, -1, 0, 0, -3, -3
1491505130485,0, 5, 0, 1, 1, 0, -2, -6
1491505130493,0, -4, -3, -1, -2, 1, 0, -4
1491505130507,0, -5, -3, -1, 0, -2, 0, 0
1491505130516,-2, -13, -5, -1, 0, 0, -2, -2
1491505130522,0, 1, 0, -1, -3, -2, -1, -1
1491505130537,-1, -1, 1, 1, -1, -1, 1, -2
1491505130545,-2, -10, -2, -4, -2, -1, -1, -1
1491505130555,-3, -20, -14, -3, -1, -2, -1, 1
1491505130567,-4, -8, -6, -2, 0, 0, 0, -4
1491505130575,1, 2, 0, -1, -1, -1, -1, -2
1491505130584,0, 5, 2, 0, -2, 1, -2, 0
1491505130597,-2, 2, 1, -3, -1, 0, -3, -1
1491505130605,-1, -6, -1, -1, 0, -1, -1, 1
1491505130613,1, 2, 0, 0, -1, -3, 0, -6
1491505130628,0, 3, -1, -1, 0, 0, 2, 1
1491505130635,-2, 2, 2, 0, -3, -2, -1, -3
1491505130642,1, 4, -1, 0, 0, 0, -1, 0
1491505130657,4, 23, 2, -1, 1, -2, -1, 0
1491505130664,-1, -2, -1, -2, 0, 0, 0, -1
1491505130665,-1, -4, -2, -1, -1, -2, -1, -1
1491505130676,0, 7, 16, 2, 0, 2, 0, 2
1491505130687,0, 16, 8, 0, -1, 1, -1, -1
1491505130695,-3, -5, -6, -1, 0, 0, -1, -5
1491505130703,1, 25, 3, -1, 0, 0, -2, -2
1491505130718,-2, -5, -6, -1, -2, -1, 1, -1
1491505130725,0, -14, -7, -1, -1, -3, -2, -3
1491505130732,1, 3, 2, -1, -1, -1, -2, -2
1491505130733,0, 0, 1, -1, -1, -1, -1, 2
1491505130747,-1, 0, 1, 0, -1, 0, -1, -3
1491505130757,-1, -12, -6, -3, -2, -2, -1, -2
1491505130762,1, 5, 1, 2, 0, -2, -1, 1
1491505130778,0, -7, -3, -1, -1, -1, 0, -1
1491505130785,-4, -11, -4, -2, -2, -1, 1, -3
1491505130793,-2, 4, -1, -1, -2, -2, -2, 2
1491505130807,-1, -5, -3, 0, 0, 0, 1, 0
1491505130815,-2, -7, -3, -2, 0, 1, -1, -2
1491505130823,-1, -6, -3, -2, 0, 0, 0, -2
1491505130838,-1, 3, 2, 1, 1, 0, -1, -2
1491505130845,1, -1, 0, -1, 0, 0, -2, 0
1491505130853,-1, 2, -3, 1, 1, 1, 1, -1
1491505130867,-1, -10, -5, -1, -2, 0, -1, -1
1491505130875,-2, -7, -6, -3, 0, -2, -2, -3
1491505130890,1, 15, 1, -1, -1, -1, -1, -1
1491505130898,0, 0, -1, -2, -2, -2, -1, 1
1491505130904,-2, -11, -7, -1, -1, -3, -1, -3
1491505130905,0, 6, 0, -2, -1, -1, -1, -3
1491505130920,-2, 3, 1, -1, -1, 0, -2, 1
1491505130927,-3, -11, -3, 0, 0, -1, -1, -3
1491505130936,1, 6, 2, 1, -1, 1, -2, -2
1491505130949,1, -11, -2, -1, -1, 0, 0, -1
1491505130950,-3, 6, 2, 0, -1, -1, -1, -1
1491505130959,3, -4, -1, 0, 0, -1, -2, -3
1491505130965,-2, -2, 0, 0, -1, -1, -2, -4
1491505130980,-3, -12, -5, -2, -1, 0, 0, 1
1491505130987,0, -5, -2, -4, 0, 0, -2, -3
1491505130995,0, -7, -6, -2, -2, -1, 0, -1
1491505131010,2, -2, 2, -1, -1, -2, -1, 1
1491505131018,1, 24, 5, 0, 0, 0, -2, 2
1491505131025,-2, -5, -3, 0, 0, 0, 0, 0
1491505131040,-1, -4, -1, 0, 0, -1, -1, -5
1491505131049,-1, -3, -6, 0, 0, 0, 1, -1
1491505131055,0, -1, 1, -1, 0, 0, 0, -2
1491505131070,-2, -4, 1, 0, -1, -1, -3, -2
1491505131079,-2, -5, -2, -2, -2, -3, -1, -3
1491505131084,0, -5, -2, -2, -1, -2, 1, 0
1491505131085,0, -4, -6, 0, -1, 0, 0, -1
1491505131100,-2, -9, -4, -2, -2, -2, 0, 0
1491505131107,0, -1, -2, -1, -1, 1, -4, -5
1491505131117,-1, -7, 0, 0, -1, -1, -2, -3
1491505131130,-3, 1, 1, -1, -2, 0, 0, -1
1491505131139,0, -7, 1, -2, -1, 1, -3, -2
1491505131145,1, 6, 3, 0, -1, -1, -1, 0
1491505131159,-4, -7, -3, -3, 1, -2, 1, -1
1491505131160,2, -7, -1, -1, -1, -1, 0, -1
1491505131167,0, -1, -1, 0, 1, -2, 0, -2
1491505131177,-1, -4, -2, 1, -1, 0, -1, -1
1491505131190,-1, -16, -8, -1, -1, -1, 1, 1
1491505131197,0, 14, 13, -1, 1, 1, -3, -1
1491505131198,2, 27, 3, 1, 0, -1, 0, 0
1491505131205,-1, 3, -1, -1, -1, -2, -1, 2
1491505131220,0, -2, 0, -1, 0, -1, 0, -3
1491505131228,0, 2, 3, 0, 0, -1, -1, -3
1491505131235,-2, -2, 2, -2, -1, -1, -2, -2
1491505131250,-2, -1, 0, -1, -1, -2, -2, -2
1491505131262,-2, -3, -3, 1, -1, 0, 0, -3
1491505131264,-1, 5, 4, 0, -2, 0, 0, 0
1491505131280,-5, -9, -2, -2, -1, 0, -2, -2
1491505131287,0, -1, 0, 0, -2, -4, -1, -3
1491505131295,0, -1, -1, 0, 1, 0, 2, 0
1491505131310,1, 21, 7, 0, 0, 2, 1, 1
1491505131318,-1, 3, 5, 1, -2, 0, -1, 0
1491505131324,-3, -7, -5, -2, 1, 0, -3, -1
1491505131339,-2, 3, 1, 0, 0, 0, -1, -2
1491505131340,1, -3, -7, -3, -2, 0, -1, -1
1491505131348,1, 2, 2, -1, -2, -1, -1, -2
1491505131356,-2, -11, -2, -1, 0, -4, 1, -3
1491505131369,-1, -9, -2, 0, -2, 1, 1, -2
1491505131379,2, -3, -1, -1, -1, 2, -1, 0
1491505131385,-3, -7, -4, 0, 0, 1, -3, 0
1491505131400,2, 17, 3, 3, 1, -1, -2, 0
1491505131407,0, -11, -3, -1, -1, 1, 1, -3
1491505131423,-1, -8, -8, -2, -1, -1, -3, 0
1491505131429,0, -2, 1, -2, 0, -1, -1, -2
1491505131446,0, -2, -1, -1, -1, 0, -3, -1
1491505131447,-1, 2, 0, -3, -2, 0, 1, 2
1491505131460,1, 13, 3, -1, 0, -2, 1, 1
1491505131468,2, 21, 1, 1, 0, 0, -1, 3
1491505131476,-2, -3, 0, -2, -1, 0, -2, -2
1491505131477,-6, -23, -10, -4, -1, 1, -1, -1
1491505131490,0, -7, -6, -1, -1, -2, -1, -2
1491505131497,-3, -1, -1, -2, -2, -2, -1, -4
1491505131498,-1, -11, 2, -2, 0, -1, 0, -1
1491505131504,-2, -9, -7, -3, 0, -1, 0, -1
1491505131505,0, 0, 0, 1, -1, 0, -1, 1
1491505131519,0, -1, 4, -2, -2, -2, 0, 0
1491505131527,-2, 0, 1, 1, -1, -2, -2, -5
1491505131535,1, 4, -2, -2, -1, 1, -2, -2
1491505131550,-3, -3, 0, -2, -1, -1, 0, -2
1491505131557,-1, 3, 0, 1, 0, 1, 0, 0
1491505131565,-1, -6, -3, 0, 1, -1, 0, -6
1491505131580,0, -7, -2, 0, 0, 0, -2, -4
1491505131587,-2, -10, 0, 0, -1, 0, -2, -1
1491505131595,-1, -13, -1, -1, 0, -1, -1, -3
1491505131610,-3, -5, -4, -3, -3, -3, -3, -2
1491505131618,0, 10, -3, -1, -3, -2, 0, 0
1491505131625,-1, -1, -1, -1, -1, -2, -2, 0
1491505131640,1, 7, 3, 1, 1, 0, -3, 2
1491505131648,-1, 10, 3, -1, 1, 0, -1, -3
1491505131655,-2, 2, -1, -1, 0, -1, -1, -2
1491505131670,0, -16, -5, -1, -1, -1, -2, 0
1491505131678,-2, -3, -4, -2, -1, -1, -2, -2
1491505131685,-1, -1, 0, -3, -1, -1, -2, 0
1491505131699,-5, -19, -12, -1, -1, 0, 0, -3
1491505131700,2, 25, 23, 3, 0, -2, 1, 2
1491505131707,2, -1, 0, -1, -2, -1, -2, 1
1491505131715,-2, -20, -7, -3, -1, -1, -2, -3
1491505131730,-2, 1, 3, -1, -2, -2, -1, -2
1491505131738,-2, -1, -2, 0, -2, -1, -1, -2
1491505131744,0, -5, -3, -1, -1, 1, -1, -3
1491505131745,1, 13, -2, 1, 0, 0, 0, 1
1491505131760,2, 25, 5, 2, -1, -2, -1, 2
1491505131767,0, 3, 1, 1, -2, 0, 0, -3
1491505131775,-4, -7, -6, -3, 0, 1, 0, -2
1491505131790,-1, -1, 0, -2, -1, 0, 1, -2
1491505131798,1, -1, 0, -2, -3, -2, 0, 1
1491505131812,0, 3, -3, -1, 1, -1, -2, -1
1491505131813,-1, -4, 0, -1, -1, -1, -1, -1
1491505131820,-1, -7, -4, -2, 0, 0, -1, -2
1491505131827,0, -1, -1, 0, -1, 0, 0, -3
1491505131843,1, 1, -1, -1, 0, -1, -1, -1
1491505131844,0, -8, -5, -3, -1, 0, -2, -2
1491505131850,-3, -4, -2, -1, 1, 0, -2, -3
1491505131858,-2, -2, 0, 0, 0, -1, -1, -3
1491505131872,-1, -13, -4, 0, -1, 0, 1, 3
1491505131880,-2, -7, -2, -2, -3, 1, -1, -1
1491505131889,-1, -7, -1, -1, -2, -1, 1, -4
1491505131902,1, 0, -4, 0, 0, -1, 0, -1
1491505131910,3, 6, 1, -2, 1, 0, -3, -3
1491505131918,1, -3, -7, -3, -1, -1, -1, 1
1491505131939,1, 0, 3, 2, 0, 0, -2, -1
1491505131940,-4, -6, -5, 1, -1, 0, -1, -2
1491505131947,1, 28, 5, 1, 0, -1, 0, 1
1491505131962,-3, 1, 1, 0, -3, -1, -1, -3
1491505131969,-2, -13, -3, 0, -2, -2, 0, -3
1491505131978,1, -5, 0, 0, -1, -2, 0, -2
1491505131991,-3, -13, -7, -2, 0, 0, 1, -1
1491505131999,0, 0, -1, -1, 0, -1, -3, -1
1491505132007,1, 3, -2, -2, -3, -1, -1, 1
1491505132023,-1, 6, 0, -2, 0, -1, 1, 0
1491505132030,2, -3, -4, -2, 1, -3, 0, -4
1491505132037,3, -3, -3, -1, -2, 0, -2, -1
1491505132051,-3, 2, 1, -1, -1, -1, -2, 1
1491505132060,0, 4, 2, 0, 1, 2, 0, 1
1491505132068,-2, -2, -3, -1, -2, -1, -1, -1
1491505132082,1, 3, 1, 1, -1, -1, 1, 1
1491505132089,1, 30, 9, 0, 0, 1, 0, 0
1491505132098,2, 16, 1, 1, 1, 0, 1, -2
1491505132111,-4, -13, -5, -2, -2, -2, 0, -1
1491505132119,-2, -8, -1, -1, 0, -2, -2, -3
1491505132127,0, -1, -3, -2, -1, -1, -2, -1
1491505132142,1, -3, 2, 1, -1, 0, -1, 1
1491505132150,1, -7, -2, -2, 0, -1, 0, 1
1491505132157,-2, -6, -4, 0, 0, -2, 0, -3
1491505132158,-2, 7, 1, -1, -1, -1, -2, -3
1491505132171,0, -4, -3, -1, 0, -1, -2, -4
1491505132180,-3, -4, -2, -2, -2, -1, 0, -4
1491505132187,3, 22, 5, 0, -1, 0, -2, -1
1491505132202,-1, -14, -2, -2, -1, 0, -4, -3
1491505132209,1, 5, -2, -1, -3, -1, 1, -2
1491505132210,-2, -8, -1, -1, 1, 0, 0, 2
1491505132218,-1, 8, 12, 1, -2, -1, -2, -1
1491505132233,-1, -5, -3, 1, -2, -1, -1, 1
1491505132240,-3, -7, -5, -2, 0, 0, 0, -1
1491505132247,0, 2, 2, 1, -1, -1, 0, -1
1491505132264,0, 1, -4, -2, 0, -1, -1, -1
1491505132270,0, -7, -3, -1, 0, 1, -1, -3
1491505132278,2, -5, -2, 0, -1, 0, 1, 0
1491505132291,-4, -24, -6, 0, -1, 1, -2, -2
1491505132299,-1, -8, -3, -2, -3, 0, -1, -6
1491505132308,0, -7, -1, 1, -1, -1, -2, 2
1491505132323,-3, -7, -9, -1, -1, 0, 2, -1
1491505132329,2, 18, 15, 1, -1, -1, -1, -1
1491505132330,-1, -6, -4, -4, 1, -1, -1, -3
1491505132337,-1, -4, 0, 1, 1, 0, -1, 2
1491505132338,0, 0, -3, -2, -1, -2, -2, 0
1491505132355,-1, 3, 2, 0, -1, -1, 0, 0
1491505132359,-1, 4, 2, 0, -1, -2, -3, 2
1491505132367,1, 6, 2, 0, -1, -2, -1, -3
1491505132384,-4, -1, -2, -2, 0, 1, -1, -1
1491505132390,0, -2, -2, 0, 0, -3, -2, 0
1491505132391,-1, -3, 4, -1, 0, -1, 0, -1
1491505132398,3, 17, 2, -1, -1, 0, 1, 2
1491505132411,-2, -11, -8, -2, -2, -1, 0, -3
1491505132419,-1, -3, -1, -1, 0, -1, -1, -2
1491505132427,1, 13, 3, 0, -1, 0, -2, 1
1491505132443,0, -2, -2, 1, 0, -2, 0, -2
1491505132450,-3, -6, -6, -3, -1, 0, -2, -5
1491505132458,-1, -2, 1, -2, -1, -1, -1, -1
1491505132471,1, 7, 1, -1, -1, 0, 0, -2
1491505132479,0, -6, -4, -2, -3, -2, -1, 3
1491505132480,1, -6, -1, -1, 0, 0, -1, -3
1491505132488,-1, -11, -8, -1, -1, -1, -1, 1
1491505132503,-1, -9, -6, -1, 0, 0, 0, -5
1491505132509,0, 6, 2, -1, -2, -1, -1, 0
1491505132520,1, 17, 5, 0, -1, -3, -1, 3
1491505132531,-2, -8, -2, -2, -2, -1, -1, -5
1491505132540,-4, -5, 0, 0, -1, -1, 0, -3
1491505132547,0, 4, 4, 1, -1, -1, -1, 0
1491505132563,-2, -10, -1, -1, -1, -1, 0, -2
1491505132569,-1, 0, -1, -2, 1, -1, 0, -5
1491505132578,-1, -18, -7, -2, -1, 0, -1, 0
1491505132591,-3, -6, -7, -2, -1, 0, -3, -1
1491505132601,1, -4, -3, 1, -1, 1, -1, -1
1491505132608,1, 3, 3, 2, -1, -2, 0, -1
1491505132623,-2, 0, 2, -2, -1, -1, 0, 1
1491505132629,0, 10, 0, -1, -2, 0, 0, -2
1491505132630,0, -2, -2, -1, 0, -1, -2, 1
1491505132637,0, -6, -4, -1, -2, -1, -1, -4
1491505132638,1, -4, -1, 1, 2, 0, 0, 0
1491505132652,-2, 5, 2, 0, -1, 0, -1, 1
1491505132660,-1, 4, 0, 0, -1, 1, 1, 0
1491505132667,1, 30, 13, 1, 0, 0, -1, 0
1491505132684,-3, -1, -4, 0, -2, 0, -2, -4
1491505132689,-4, -8, -6, -2, -1, 0, -2, -4
1491505132705,2, 6, 3, 1, 1, 0, -2, -1
1491505132711,1, -1, -1, 0, -2, 0, 2, 2
1491505132719,-1, -1, 1, -2, -3, -1, -2, -3
1491505132735,0, -7, -2, -2, 0, -2, -1, -1
1491505132743,0, 16, 1, -1, -2, 0, 1, 0
1491505132749,1, -1, 1, 0, 2, 0, 0, 0
1491505132764,-1, -1, 1, 0, 0, -2, -2, -2
1491505132771,1, -5, -3, -1, -1, -1, -1, -1
1491505132780,-3, -13, -9, -2, 0, -1, -1, -1
1491505132794,-1, -14, -5, 0, -2, 0, -2, -2
1491505132802,1, -3, -3, -2, 1, -2, 2, 1
1491505132811,-2, -6, -2, 0, -1, -1, 0, -4
1491505132824,0, 5, 0, 2, 1, -2, 0, -1
1491505132825,-2, 1, 2, 2, -1, -2, 1, 5
1491505132831,0, 0, 0, 0, 2, -1, -2, 0
1491505132839,-1, 2, 4, 1, 0, -1, -2, -2
1491505132855,-1, 3, 0, -1, -1, 0, 2, -1
1491505132862,0, -6, 0, -2, -2, -1, -2, 0
1491505132870,-3, 2, -1, 0, 0, 0, 1, -1
1491505132884,-3, -4, -2, -2, 0, -2, 0, -2
1491505132891,-3, -9, -5, -4, -3, -3, -3, -2
1491505132899,4, 16, 8, 0, 0, -1, 1, -2
1491505132900,0, -2, -3, 0, -2, -1, 0, -3
1491505132914,0, 0, -3, 0, -2, -2, -1, -2
1491505132922,1, 4, 1, -1, 0, -1, 0, 0
1491505132929,-1, 7, 2, -3, -2, 0, -1, -1
1491505132946,-2, 10, 0, -1, 0, 2, -2, -2
1491505132951,-2, 2, 1, -2, -1, -1, -2, -1
1491505132960,-1, -2, -3, 0, -2, -1, 0, -2
1491505132974,0, 1, 1, -1, -2, 0, 0, -2
1491505132982,-1, -20, -2, 0, -1, 0, 0, -1
1491505132990,-1, -1, 6, 0, 2, -2, 1, -1
1491505133004,-4, -11, -4, -3, -2, -1, -4, -5
1491505133011,-2, -7, -8, -1, 0, -2, -2, -2
1491505133020,-3, 2, 1, 1, 0, -1, -2, -2
1491505133034,0, 1, 0, -2, -2, 0, -1, 1
1491505133042,1, 10, 1, -1, -1, 1, 0, -3
1491505133049,1, 3, -2, 0, 1, 0, 0, -2
1491505133064,-1, 6, 2, -2, -1, -3, 0, -1
1491505133072,1, 1, -4, -1, -2, 0, -2, -1
1491505133080,0, 5, -3, -1, 0, -1, 0, 0
1491505133094,-3, -7, -4, -1, -2, -1, -2, 0
1491505133105,2, 1, 2, 0, 1, 0, -2, -3
1491505133109,1, 2, 2, -1, 0, -1, 0, 1
1491505133125,0, -2, 1, 1, -1, -1, -2, -1
1491505133131,-1, 10, 2, -1, 2, 0, 0, -3
1491505133140,1, 0, -2, -2, -2, 0, -1, 0
1491505133143,-2, -9, -3, -1, -1, -1, -1, 1
1491505133155,0, -3, 1, 1, 0, -1, 1, -3
1491505133162,0, -1, -4, -3, -2, 0, 0, -2
1491505133170,-3, -12, -2, -2, -2, -1, -1, -2
1491505133184,1, -2, 0, -3, 0, -1, 1, 1
1491505133191,-1, -4, -3, 0, -1, -1, -3, -2
1491505133200,-2, 4, 0, 1, -2, 0, -1, -2
1491505133214,-1, -4, -5, 1, -2, 1, -1, -1
1491505133222,2, 5, 3, 1, 0, 0, -1, -1
1491505133230,1, 4, 2, -1, -2, -2, -2, -5
1491505133245,0, -4, -2, -1, -2, 0, -1, -1
1491505133251,3, 6, 3, 0, -1, 0, -1, -1
1491505133259,-5, -1, -5, -3, -1, -1, 0, -1
1491505133274,-3, -14, -9, -2, 1, -1, -1, -1
1491505133282,-1, -4, -2, -1, -1, -1, -2, -1
1491505133290,0, -3, -4, 0, -2, -2, -2, -2
1491505133305,-2, -4, -1, 1, -1, -4, -1, 0
1491505133311,-3, -1, 0, -1, 0, 1, -2, 0
1491505133319,-1, -6, -3, -3, 0, 1, -2, 0
1491505133320,2, 4, 3, 1, 1, 0, 0, 0
1491505133334,1, 7, 4, 1, 0, -1, 0, 0
1491505133342,0, -2, -2, -1, 0, 1, 0, -4
1491505133349,0, 20, 4, 2, -1, 0, 1, 2
1491505133365,-3, -3, 0, -3, -3, 0, -2, -1
1491505133371,-1, -18, 1, -1, -1, -1, 0, -4
1491505133380,0, -3, 0, -1, 1, 0, 1, 2
1491505133394,0, -5, -3, -1, -2, -2, -1, 0
1491505133402,1, 0, 0, -1, -1, -2, -1, -3
1491505133410,-2, -2, -5, -1, 0, -1, 1, 0
1491505133424,-2, 4, 1, -1, -1, -1, -1, -3
1491505133431,0, 4, 1, 0, -1, 1, -1, -1
1491505133440,-3, -1, -2, -2, -2, -1, -3, -2
1491505133454,-2, 1, 1, -2, 2, 0, 0, -2
1491505133462,1, 8, -1, 0, 0, 0, 0, -2
1491505133469,-3, 0, 2, -1, -2, 0, -1, 0
1491505133484,-5, -34, -9, -2, 1, 0, -2, -2
1491505133485,5, 60, 15, 4, -1, -1, 2, 5
1491505133491,0, 3, -4, 0, -1, -1, -1, -2
1491505133499,0, 8, 13, 0, 0, -1, -1, -4
1491505133500,-2, -19, -8, -1, -1, -1, 0, -1
1491505133514,0, -8, -3, -3, 0, -2, 0, 1
1491505133522,-1, 1, -5, 0, -2, -1, 0, -2
1491505133523,-2, -8, -2, -1, 1, -2, 0, -1
1491505133529,0, 6, 2, 1, -1, 1, -1, -2
1491505133530,-3, -7, -3, -1, -1, 0, -1, -1
1491505133544,-2, -10, -2, -4, 0, -1, -4, -3
1491505133551,-1, 1, -2, -1, -2, 0, -2, -4
1491505133559,-3, -23, -9, -2, -1, 0, 0, 0
1491505133575,2, 13, 4, 0, 2, -1, 1, 0
1491505133582,-3, -23, -9, -3, -1, -1, -2, -2
1491505133589,1, -8, -3, -1, -2, -1, -1, 0
1491505133604,-2, -1, 2, 1, 0, 0, -2, -2
1491505133611,0, 4, 0, 1, 0, -2, -4, -6
1491505133620,-1, 3, 1, -2, -1, 0, -2, -3
1491505133634,0, -3, -1, -1, -1, -3, 0, -1
1491505133642,1, 4, 1, 0, -1, 0, 0, -2
1491505133649,-1, -2, -1, -1, 0, -1, 0, -3
1491505133664,2, 0, -1, 0, -1, 0, -1, -1
1491505133665,2, 2, 0, 0, 0, 0, 0, 1
1491505133671,-1, -3, 1, -1, -1, -1, -1, 1
1491505133687,-2, -14, -11, -1, -1, 0, -2, -4
1491505133694,-3, -5, -4, -2, -1, 0, -2, -5
1491505133702,2, 20, 3, 1, -1, -1, 0, 0
1491505133716,-1, -3, 0, -1, -2, 0, 2, 0
1491505133724,-2, 1, 0, 1, 1, 2, -1, 0
1491505133725,-1, -2, 0, -3, -1, -1, -1, -3
1491505133737,-1, 4, -1, 1, 1, -1, -2, 0
1491505133747,0, -1, 2, 0, 0, -3, -1, 0
1491505133754,0, -3, -2, -2, -2, -3, 0, -2
1491505133763,-3, -1, 0, -1, 0, -2, -1, -3
1491505133776,2, 29, 5, 0, -2, -1, 0, 3
1491505133785,-2, 0, -2, -2, -5, -1, -1, -2
1491505133791,0, -11, -2, -1, 0, 0, -3, -1
1491505133807,-2, -3, 1, 1, -2, -2, -2, 1
1491505133814,0, -9, -3, 0, -2, -2, 0, -4
1491505133822,0, -8, -1, -1, 1, -2, -2, -3
1491505133836,1, 22, 6, -1, -1, 1, 0, 4
1491505133844,-1, -6, -2, -1, -1, 0, 0, 1
1491505133851,-2, -10, -6, -3, 0, 1, 1, -1
1491505133869,1, -5, -2, 0, -1, -1, 0, 1
1491505133875,-4, -8, 0, -1, 0, 0, -1, -1
1491505133882,-2, -8, -5, -3, 0, -4, -1, -4
1491505133896,-1, 2, 0, 1, -1, -2, -2, -3
1491505133904,1, -10, -1, 0, 0, -1, 0, 2
1491505133905,-1, 11, 3, 1, -2, 0, 0, -1
1491505133911,3, 9, 4, 1, -2, 0, 0, 1
1491505133927,-2, -1, 0, -1, -1, 1, 0, 0
1491505133934,-2, -7, -4, 1, 0, -1, -2, -3
1491505133943,-3, 2, 0, 0, 0, 0, 1, 2
1491505133944,2, 2, 0, -1, 1, -1, -2, -2
1491505133956,-1, -5, -3, 0, 0, 0, 0, -3
1491505133964,0, 0, 0, 0, -1, 0, -1, -1
1491505133979,-1, -3, -1, 0, 0, 1, -1, 0
1491505133987,-1, -6, -6, -2, -3, -1, -1, -1
1491505134002,-1, -11, -3, -2, -1, 0, -2, 0
1491505134003,0, -3, -3, 1, 0, -2, 0, -1
1491505134016,-2, -2, -3, -4, -3, -4, -1, -2
1491505134024,-1, 1, 1, -1, -2, -2, 0, -3
1491505134031,0, -4, 2, 0, -1, 0, -1, 0
1491505134047,-1, 0, 1, -1, -2, 0, 2, 1
1491505134054,-1, -8, -3, -2, 1, -1, 0, -2
1491505134062,1, -1, 1, 1, 2, 0, 3, -1
1491505134077,0, -2, -2, -2, 0, -2, 0, 1
1491505134085,1, 22, 18, 2, 2, -1, -1, 2
1491505134091,-3, -5, -1, 0, -1, 0, -1, -3
1491505134107,-2, -12, -9, -2, 0, -1, -2, -3
1491505134114,-1, 0, -1, -1, -1, 0, 0, -1
1491505134122,0, 0, -2, -1, -2, 0, -2, -1
1491505134138,-1, 2, -2, 0, -1, -1, 0, 2
1491505134145,-1, -4, -2, 0, 1, 1, -2, -3
1491505134160,-1, -4, -1, 1, -1, 0, -1, -3
1491505134161,-2, -3, -2, -1, 0, 0, -1, -2
1491505134167,-4, -11, -3, -2, -2, 0, -1, -1
1491505134175,-3, -1, -2, -3, 0, 1, -3, -5
1491505134182,0, -18, -12, -1, -2, -3, -1, 0
1491505134198,4, 33, 5, -1, -1, -2, 0, -2
1491505134205,1, 2, -2, -1, 0, 0, -1, -6
1491505134220,-2, -2, -1, 0, -1, 0, 0, 1
1491505134227,-2, 6, 1, -3, -3, -1, 1, 1
1491505134235,-1, -4, 0, 0, -1, 0, 0, -4
1491505134242,0, -1, 0, 0, 0, -1, -2, 0
1491505134257,0, -3, -3, -2, -1, 0, 1, 2
1491505134258,1, -4, -2, 0, -1, -2, -1, -3
1491505134264,-1, 2, 5, 0, -1, 1, 0, -1
1491505134265,1, -1, 0, 0, -1, -1, 0, -2
1491505134280,5, 44, 20, 2, -1, 0, 0, 3
1491505134288,-1, -4, -2, 0, -1, -1, -2, 3
1491505134295,0, 12, 0, 0, 0, -1, -1, 5
1491505134302,-1, 0, -1, -1, -1, -1, -2, -3
1491505134303,-2, 5, 0, -2, 1, 0, 0, 1
1491505134318,0, -14, -5, 0, -2, -1, 0, 1
1491505134325,-1, -2, -4, -1, 0, -2, -3, -1
1491505134340,-4, -10, -1, -1, 1, -2, -2, -4
1491505134347,-1, -1, 0, -1, -2, -1, 0, -2
1491505134355,-2, -10, -4, -2, -1, 1, 0, -2
1491505134364,4, 3, 2, -3, 1, 0, -1, -2
1491505134382,-1, -12, -7, -2, 0, -1, 1, -2
1491505134384,-2, 2, 1, -1, -1, 0, 1, -1
1491505134400,0, -8, -3, -1, -2, 0, -2, -1
1491505134407,-1, 0, 0, -1, 0, -1, 0, 0
1491505134415,-3, -7, -3, -2, -1, -1, -3, -3
1491505134422,-1, 10, 3, 1, -1, -2, 1, 0
1491505134437,0, 1, 0, -1, 1, 0, -1, -1
1491505134444,-2, -4, -3, -1, 0, 0, -2, -2
1491505134460,-5, -5, -2, -2, -2, -1, -1, 0
1491505134467,-4, -1, 0, -1, -1, 1, 0, -1
1491505134475,-2, -6, -2, -1, -2, -1, -1, -3
1491505134482,2, 9, 7, 3, -1, 0, -2, -1
1491505134498,-1, -1, -2, -1, 0, -1, 2, -2
1491505134504,2, -6, 0, 0, -1, -1, -2, -2
1491505134520,0, -6, -1, -1, 1, -1, -2, -3
1491505134527,0, -3, -4, -1, 0, 0, -1, 0
1491505134535,-1, 0, -2, 0, -1, 0, 1, -1
1491505134542,-2, -7, -1, -1, -1, -3, 1, -4
1491505134557,1, -1, 2, -1, -1, 0, 0, 1
1491505134564,-2, 4, -2, -1, -2, -1, -1, -1
1491505134580,-1, -11, -1, -2, -1, -3, -1, -3
1491505134581,2, -8, -5, 1, -2, -1, -1, 3
1491505134587,1, 2, 1, -4, -2, 0, 0, 1
1491505134595,-2, -2, -3, -3, 0, -1, -1, -2
1491505134602,11, 4, -2, 1, 0, 0, -1, -1
1491505134617,-2, 3, 2, 2, -1, -2, 2, -4
1491505134624,-2, -2, 0, -1, 1, -2, -1, -2
1491505134640,1, 1, -1, -2, 1, -1, -1, 1
1491505134647,-5, -14, -6, -2, -2, 0, -1, -6
1491505134655,0, -2, 0, -1, 0, -1, -4, -2
1491505134669,-4, -5, -3, -2, -1, 1, -2, 0
1491505134678,0, 6, 6, -1, -4, 0, 0, -3
1491505134684,-5, -2, -3, 0, -2, -3, 1, -4
1491505134700,0, -1, -2, -1, 0, 1, -1, -3
1491505134707,-2, -2, 2, 2, 1, 1, 2, 3
1491505134715,-3, -1, -4, 0, -1, -3, -2, 3
1491505134729,-4, -5, -1, -2, -1, -2, -2, -4
1491505134737,-1, 0, -4, -3, -1, -2, 1, 2
1491505134744,3, 12, 16, 2, 1, -1, 0, 0
1491505134760,-1, -4, -3, -1, -3, 0, -4, -3
1491505134767,-4, -10, -9, -1, -2, -1, -2, -4
1491505134775,-5, -4, 0, 0, 0, 0, -4, -10
1491505134789,5, 14, 6, 0, 0, 0, -1, 6
1491505134790,9, 6, -2, -2, -1, 0, -2, -1
1491505134797,1, -1, -3, -2, -1, -1, 2, 6
1491505134804,-5, 0, -1, 0, -1, 1, 0, -2
1491505134820,-3, -2, 2, 4, 0, 0, 2, 5
1491505134827,1, -4, -6, -3, 0, -1, -3, 4
1491505134835,10, 0, -2, -5, 0, -1, -1, 14
1491505134849,1, 0, 0, -4, -2, -2, -1, -3
1491505134857,0, 2, 0, -7, 1, 1, 0, 0
1491505134866,-6, -7, -4, -6, -4, -2, -2, 5
1491505134881,9, 3, -4, -9, -2, -2, 0, 15
1491505134882,-2, 4, 3, 14, -1, -2, 0, 3
1491505134887,-12, -1, 1, -8, 3, 2, 1, -7
1491505134895,-1, -5, -8, -5, -3, -2, -5, -7
1491505134910,5, -2, -2, 1, -2, -2, 0, 2
1491505134918,2, -1, 0, -9, -3, 0, 1, 0
1491505134924,-7, -6, -5, -2, -6, 0, -4, -46
1491505134925,10, 5, 1, -4, -3, -4, -2, 16
1491505134940,0, 1, 5, 11, 3, -1, -2, -8
1491505134947,5, 3, -3, -3, -1, -2, 1, -12
1491505134955,-15, -11, -7, 1, -1, -1, -2, 2
1491505134970,-10, -8, -4, 7, -1, -1, -4, -14
1491505134977,0, 0, 1, -8, -5, 0, 4, 25
1491505134978,0, -6, -6, -2, 2, -1, -2, -27
1491505134984,1, -6, -4, -3, -2, -3, -4, 1
1491505134985,-3, -2, -2, 3, 3, 0, 0, -3
1491505135000,1, -13, -5, -3, -4, -2, -1, -19
1491505135001,6, 54, 12, -1, -2, 0, 1, -15
1491505135007,-7, 4, 0, 15, 2, -1, -2, 5
1491505135015,-5, -9, 7, -3, 6, -1, 1, 1
1491505135029,7, 10, -1, 17, 2, 1, -1, -19
1491505135030,14, 5, -3, -10, 2, 1, -3, -24
1491505135037,-5, -3, 3, 0, -4, -1, -5, -7
1491505135038,5, -7, -4, -7, -5, -3, 1, 20
1491505135045,-6, -10, -2, -4, -6, -1, 0, 9
1491505135060,-5, -10, -2, 2, -3, 0, -4, 8
1491505135068,7, -12, -4, 5, 1, -2, 2, 35
1491505135075,-9, -11, -6, -2, -5, -2, 0, 43
1491505135089,2, -7, -8, -8, 0, 0, -1, 37
1491505135090,-2, 0, 4, 13, 2, 1, -1, 4
1491505135097,-4, -6, -4, -3, 2, 0, -2, -29
1491505135098,2, -9, -3, -5, 2, 0, -1, -68
1491505135104,-2, 3, -3, -14, -2, 1, 0, -99
1491505135105,2, 4, 13, 8, 0, 0, 2, -68
1491505135120,15, 14, -5, -2, -2, -1, 0, -16
1491505135127,-9, -29, -12, -11, -1, 0, 0, 17
1491505135135,-8, -10, -2, 3, -1, 0, -3, 42
1491505135149,4, 9, 5, 15, 3, 1, 3, 33
1491505135157,-13, -16, -1, 0, -2, -1, 2, 21
1491505135158,-9, -4, -8, -4, -1, -1, -1, 7
1491505135164,30, 17, 22, 10, 5, 1, 0, 4
1491505135165,-11, 5, -5, -7, -2, -1, -3, -3
1491505135180,-16, -13, -1, -1, 5, 2, 0, -9
1491505135187,13, 26, 1, -8, -4, -2, -1, -4
1491505135195,-5, 4, -3, -9, -5, -1, -2, -19
1491505135211,-4, 6, -2, -7, -1, -1, -2, -12
1491505135218,12, 1, 3, 1, -4, 1, 0, 0
1491505135224,-14, -19, -3, -7, -3, -3, 1, 1
1491505135240,-2, 1, 0, -3, -6, -2, 0, 1
1491505135247,0, -3, 15, 1, 0, 1, 0, -1
1491505135263,8, 4, 0, 1, 0, 0, -2, 7
1491505135269,-9, -5, -3, -1, 2, -1, 0, -7
1491505135270,-9, -22, -7, -7, -3, -2, -5, -1
1491505135284,4, -11, -4, -2, -3, -1, -1, 10
1491505135285,8, 28, 17, 7, 2, -1, 5, 0
1491505135286,-12, 0, -4, 0, 0, 2, -1, -8
1491505135300,-1, -2, 3, 4, 3, 1, 1, -3
1491505135307,0, 2, 0, -4, 5, 0, 0, -5
1491505135315,-1, -6, -4, -10, -2, -1, -1, -2
1491505135330,4, 0, -10, -4, -4, -1, 0, 1
1491505135337,0, -5, 4, 6, -2, 1, -2, -3
1491505135344,-2, -8, -6, 1, -1, -2, 1, 8
1491505135360,8, -3, 4, 2, -2, -2, -3, 5
1491505135367,6, -25, -12, 1, 2, 0, -1, -7
1491505135375,-6, -14, -18, -1, -1, -1, -7, -4
1491505135389,0, -34, -21, -4, -3, -3, 3, 9
1491505135390,6, 72, 36, 4, 1, -1, 0, 0
1491505135397,2, 16, -2, 1, 1, -3, -2, -1
1491505135404,3, 7, 1, 0, -1, 0, -1, -1
1491505135405,-2, -23, -16, -5, -2, -2, -1, 11
1491505135421,-5, -13, 4, 0, 1, 3, 4, 1
1491505135427,2, 2, -4, 1, 0, 2, -2, -10
1491505135435,-8, -16, -13, -4, -3, -1, 0, -16
1491505135449,-4, -2, -2, -1, -10, -2, -1, -2
1491505135457,-6, -13, -8, 10, 7, 0, 2, 6
1491505135464,-2, -2, 1, 0, 1, 1, -4, -5
1491505135480,6, 4, -1, -5, -6, -3, 9, 2
1491505135487,-1, -2, -3, -6, 0, -7, -14, -4
1491505135496,-12, -5, 2, 1, -1, 0, -4, -3
1491505135509,7, 6, 3, -1, -2, 3, 9, -7
1491505135510,1, -9, -8, -17, -8, 15, 17, 1
1491505135517,2, 6, 2, 3, 4, 4, 6, -2
1491505135524,-9, -3, -1, -3, 3, -1, -3, -8
1491505135540,16, 9, 1, -5, -2, -5, -4, -4
1491505135547,-3, 3, 3, 2, 7, -1, 3, 5
1491505135562,-3, -1, -4, -4, -2, 0, 8, 5
1491505135569,3, 2, -5, 3, -1, 2, 9, 3
1491505135578,-8, 1, 1, -6, 1, -2, -7, -11
1491505135592,-33, -14, -3, 3, 1, -13, -16, -8
1491505135600,-2, -9, 2, -1, -3, 3, -3, -10
1491505135607,-1, -3, 4, -1, -2, 3, -4, -13
1491505135628,1, 0, -1, -3, 4, -6, -6, 3
1491505135630,18, 15, 3, 1, -1, -3, 0, 3
1491505135637,-7, -13, -5, 4, 4, 1, -4, 0
1491505135652,14, 7, 2, 0, -3, -1, 5, 11
1491505135660,-3, 3, 2, -3, -4, 2, 7, -8
1491505135667,4, -4, -3, 2, 1, -5, -8, -4
1491505135682,15, 7, 1, -3, -1, -21, -26, -4
1491505135689,-4, -1, 0, 4, 1, 2, 6, 1
1491505135697,5, -2, -9, -6, 0, 0, -5, -2
1491505135698,-6, 5, 16, 4, -1, 6, 2, 0
1491505135712,-1, -4, -4, -5, 3, 2, 1, -1
1491505135720,4, -14, -13, -2, -5, -2, -1, 1
1491505135727,8, -2, 4, 4, -3, -1, 0, -1
1491505135742,1, -6, -6, -3, 0, 1, 4, 6
1491505135749,-11, -2, -4, -2, 1, -7, -24, -2
1491505135757,30, 13, 6, 3, -1, -2, 1, 6
1491505135758,-11, -1, -2, -5, -2, 0, -2, -1
1491505135773,9, 8, 6, -1, -1, -2, 0, 1
1491505135780,1, 1, 1, -4, -3, -2, 1, -2
1491505135787,7, -2, 0, 1, -1, 15, 19, 5
1491505135802,1, 3, -3, 5, 3, 14, 18, 3
1491505135809,2, -1, -7, -6, -4, 0, -7, -8
1491505135817,-4, -6, -8, 0, -1, -3, -4, -2
1491505135832,9, 32, 24, 4, 1, 4, 11, -11
1491505135841,-8, 5, 4, -2, -2, -3, -5, -4
1491505135848,-12, -24, -21, -3, -1, -8, -3, -2
1491505135862,17, 15, 21, 4, 2, 0, 0, -2
1491505135869,-2, -11, -11, -2, -1, -4, -1, 7
1491505135878,-10, 30, -5, -2, -2, 0, 3, -1
1491505135892,-8, 3, -6, -7, -5, 6, 18, -6
1491505135902,-20, -68, -20, -7, -1, 0, 5, 18
1491505135907,-12, -66, -26, -4, 0, -4, -9, -16
1491505135922,17, 40, 14, 4, 1, 5, 14, 9
1491505135923,7, 3, -13, -7, -5, -7, -11, -8
1491505135929,3, 6, 9, -11, 8, -13, -15, 1
1491505135938,1, 2, -6, -2, -3, 0, -5, -14
1491505135952,-2, 8, -4, -1, -4, 0, -6, -1
1491505135960,9, 22, 15, 2, 0, -1, 4, 3
1491505135967,-4, 3, 17, 7, -3, 0, -3, -1
1491505135982,-8, -13, 2, 8, -1, 1, -3, -17
1491505135989,17, 71, 30, 8, 2, 1, -3, 9
1491505135999,-4, 11, 8, 2, 1, -1, -3, -2
1491505136012,3, -16, -6, -7, -6, -2, 2, -3
1491505136020,1, 4, -3, 1, 5, -27, -38, -14
1491505136027,-2, 0, 1, -5, -4, -2, -2, -17
1491505136042,-1, -14, -9, -8, 3, 0, -1, 2
1491505136050,5, 23, 9, 3, -4, 8, 14, 30
1491505136058,-2, -3, 4, 2, -6, 2, 0, -5
1491505136072,-12, -33, -19, 0, 3, 0, 2, -16
1491505136080,-6, -2, 2, 2, -2, 2, 0, 3
1491505136087,5, -10, 0, 28, 6, 18, 35, 5
1491505136102,8, 2, -2, -1, -3, 17, 24, -4
1491505136116,-6, 0, -4, -9, -4, -3, -5, 4
1491505136118,4, -9, 1, -1, 4, 2, -4, -6
1491505136133,-7, -5, 0, -6, -1, -4, -7, 0
1491505136140,-2, 2, -2, -10, -6, 0, 1, 7
1491505136161,-4, -10, -3, -5, 0, -6, -9, -4
1491505136163,-8, 1, 2, 1, 1, -1, -3, 4
1491505136169,6, -4, -7, -4, 0, -6, -10, -4
1491505136178,7, 13, -8, 1, -1, 0, 7, 3
1491505136192,-10, -9, -3, -10, -4, -22, -39, -2
1491505136200,-3, -4, -1, -1, -1, 0, 4, 5
1491505136207,0, 5, 1, 5, -7, 4, 10, 1
1491505136222,-4, 1, 1, 9, 10, -1, -5, 1
1491505136229,7, -3, -1, 0, -3, -2, -12, 3
1491505136237,0, -11, -4, -6, -4, -1, -6, 6
1491505136252,11, 2, 1, 2, 6, 1, 1, -3
1491505136262,-3, -4, 1, 1, 1, 4, 17, -3
1491505136267,-4, 2, -3, -6, -4, 3, 11, 3
1491505136282,1, 0, -2, -2, 0, -14, -23, -2
1491505136289,-1, 2, -2, -1, -2, -3, 6, 8
1491505136297,-4, -1, -4, -4, -8, -1, -8, -17
1491505136312,2, -1, -2, -1, 5, -1, 10, -66
1491505136321,-4, -1, -2, -2, -4, -2, -4, -1
1491505136327,-16, -3, -3, 2, -2, -6, -11, 1
1491505136328,-6, -37, -12, -5, 1, -1, 14, -3
1491505136342,9, 48, 17, 3, 0, -8, -14, -5
1491505136343,0, 8, 14, 2, 2, 0, 6, -1
1491505136349,-1, 12, 10, 3, -1, 2, -1, 35
1491505136357,8, -13, 0, -2, -2, -3, 0, 42
1491505136372,-5, -4, -7, 3, 2, 5, 3, 7
1491505136383,19, 14, 2, 0, -3, -1, -4, -22
1491505136387,5, 0, -2, -3, -4, -4, -7, -28
1491505136402,-10, -2, 1, -3, 0, 1, -5, -4
1491505136409,-24, 5, 10, 2, 3, 2, -10, 11
1491505136419,-7, -20, -10, 11, 10, 10, 18, 21
1491505136432,19, 12, 0, 3, -4, -6, -24, -14
1491505136440,1, 3, 4, -5, -1, 4, 14, -5
1491505136447,-20, -3, -10, -5, -5, -2, -4, -2
1491505136462,-6, 4, 2, -8, -5, 0, 19, -3
1491505136469,-2, -16, -17, -10, -8, -1, -4, 8
1491505136484,-18, -8, -6, -4, -2, 19, 18, -4
1491505136492,8, -5, -3, 1, 6, 3, 2, 11
1491505136500,10, 7, -3, -5, 2, 4, 32, -9
1491505136514,25, 35, 13, -1, -2, -2, 0, 8
1491505136529,-2, 0, -7, -3, -2, -13, -16, -16
1491505136530,0, 23, 3, -1, -2, -5, -2, -22
1491505136551,-13, -3, 11, 3, 2, 5, 4, -15
1491505136552,2, -3, -7, -3, -4, -9, -27, -9
1491505136553,-11, -15, -5, -5, 0, 3, 8, 8
1491505136560,4, -11, -2, -2, -4, -9, -15, -8
1491505136574,-4, 1, 2, -6, 4, -15, -37, -6
1491505136582,3, -1, 4, 2, 3, -2, 6, 8
1491505136589,-9, -10, -1, 1, -2, 10, 22, 16
1491505136604,-5, 2, -2, 1, 0, -1, -13, -21
1491505136612,3, 0, -2, -4, 1, -4, -16, -47
1491505136620,-4, -1, 3, 3, -4, 2, 1, -3
1491505136634,-1, 0, 4, 6, 0, -3, 4, -10
1491505136642,0, -5, -3, -4, 0, -2, -6, -18
1491505136649,1, -14, -13, 0, 0, 1, 9, 29
1491505136664,9, 31, 20, 3, 1, 0, -2, 13
1491505136672,-6, -3, 3, 20, 1, 3, 7, 15
1491505136680,-3, -9, -7, -3, -1, -2, -6, 5
1491505136694,8, 5, 4, -2, -3, 1, 3, -2
1491505136702,0, 3, -4, 4, 2, -2, -4, 6
1491505136709,-3, -1, -1, -6, 1, 1, 6, 2
1491505136724,25, -3, -6, -3, 1, -7, -15, 34
1491505136732,-3, 10, 8, 1, -4, -18, -18, -8
1491505136740,-14, -19, -16, 0, 0, 4, 4, 6
1491505136754,1, -3, -1, -8, -7, 11, 11, -7
1491505136763,-6, -1, -4, -9, -1, -8, -3, -9
1491505136769,-6, -5, 2, -14, 6, 1, 7, 10
1491505136784,-10, -3, -2, 5, -2, -1, -5, 6
1491505136792,1, -7, -5, -7, -6, -2, 1, 3
1491505136800,5, 4, 9, 5, 2, 2, 1, -21
1491505136817,6, 0, -2, 1, 0, 10, -3, 40
1491505136822,-2, 2, 1, -1, -2, 5, 6, -3
1491505136829,2, 2, 1, 19, 6, 7, 13, -6
1491505136844,7, 0, -1, -10, 10, -3, -5, 2
1491505136852,-2, 0, -3, 0, -2, -4, -12, -2
1491505136860,-20, 2, 0, -2, -9, -6, -13, -35
1491505136874,29, 35, 23, 3, -3, -9, 1, 3
1491505136882,6, 43, 15, 1, -2, 4, 9, 9
1491505136889,-8, -9, -5, 0, 1, -2, -5, -8
1491505136890,-34, -30, -8, 0, -3, -2, -9, -12
1491505136904,3, 14, 4, 5, -1, 1, 2, 10
1491505136912,-10, -1, -7, -1, 2, -7, -34, -23
1491505136921,-17, -23, -9, 0, 0, -1, 2, -6
1491505136934,-2, -19, 4, -1, -1, 4, 12, -12
1491505136943,11, -11, -4, 1, -7, -11, -12, -2
1491505136949,-9, -2, -10, -5, -7, -42, -42, 5
1491505136966,0, -1, -1, 1, 1, 5, 12, -9
1491505136973,0, -35, -15, -4, 2, 7, 14, -6
1491505136980,-8, -34, -20, -3, -1, -1, -5, 13
1491505136994,43, 45, 5, 1, 2, 7, 9, -2
1491505137003,2, 4, 2, 0, 1, 6, 7, -8
1491505137009,14, -11, 0, -1, 5, 16, -15, -42
1491505137024,-4, -14, -3, -1, 5, -26, -33, -10
1491505137032,-18, 2, 2, 1, -2, 6, 18, -16
1491505137040,-8, 3, 3, 2, 1, 23, -4, -28
1491505137054,-11, 7, 3, -1, -5, -10, 15, 6
1491505137063,2, -2, -1, 0, -4, -7, 13, 12
1491505137069,1, 14, 0, 0, -2, 8, 35, 38
1491505137084,-17, 4, 0, 2, -1, 5, 17, -30
1491505137092,0, -33, -11, -12, -6, -10, -8, 39
1491505137101,4, 39, -4, -1, 0, 2, 16, 24
1491505137102,-19, 11, 15, 5, 3, 6, -3, -11
1491505137114,13, -8, -14, -1, -2, 0, 3, 99
1491505137123,9, -10, -1, -1, -5, -2, 4, 43
1491505137129,-17, -11, 1, -1, 6, 4, 2, 1
1491505137145,22, 12, 2, 1, -1, -1, 16, -40
1491505137152,-13, -85, -31, -6, -5, 1, -12, -5
1491505137160,-9, -26, 4, 1, 0, -3, -18, -10
1491505137174,-24, -1, -2, 1, 2, 3, 0, -105
1491505137183,21, 39, 33, 3, -1, 0, 4, -78
1491505137189,-27, 12, 5, 0, -1, -1, -5, -78
1491505137204,10, 5, -5, -1, 0, 0, -11, 37
1491505137212,18, 19, -2, -7, -5, 11, -10, 117
1491505137221,13, -7, -6, -2, 1, 1, -1, -1
1491505137234,12, 40, -14, 5, 1, 0, 12, 41
1491505137243,-1, 28, -26, -10, -4, -7, -9, 33
1491505137250,-8, -55, 7, 3, -1, 1, 7, -1
1491505137251,-14, 7, -2, 1, -1, -5, -2, 17
1491505137265,-15, -41, -4, -2, -2, 0, 6, 6
1491505137272,-4, 21, 22, 5, 1, 1, -1, -78
1491505137280,12, -46, -21, -10, -5, -2, 7, 52
1491505137294,20, -3, 4, 0, -2, -5, -2, 6
1491505137303,-14, 10, -5, -2, 5, 1, -3, 24
1491505137310,22, 27, 21, 5, 3, 0, 9, 2
1491505137324,6, 15, 13, 1, -4, -5, -2, 26
1491505137332,3, 52, 42, 7, 1, 1, -4, -30
1491505137342,8, -14, -10, -2, -2, -4, -10, 6
1491505137354,2, 22, 5, 1, -2, -3, -1, -1
1491505137363,-28, 6, 1, 3, 0, 3, 5, -16
1491505137372,31, -20, -17, -10, -3, -5, -11, 81
1491505137386,-8, -43, 1, 1, -3, -2, -3, -20
1491505137392,-19, -30, -3, 0, -3, -1, 1, -42
1491505137407,-9, 1, 1, -2, -1, 1, -3, 1
1491505137414,17, -20, -5, 1, 0, -1, 3, -35
1491505137422,1, 24, 19, 4, 1, 0, -2, -35
1491505137436,-10, -40, -11, -4, -2, -2, -3, -18
1491505137444,-2, -9, -7, -2, 1, 1, 1, -16
1491505137452,-1, -19, -7, -4, 1, 0, -3, -12
1491505137467,19, 17, -4, -1, -4, -3, 2, 2
1491505137475,-4, -2, -1, -2, -1, 1, 4, -37
1491505137484,7, 7, -5, -3, 0, -6, -23, -26
1491505137496,-7, 8, -3, -4, -8, -9, -9, 50
1491505137504,-3, 33, 12, -3, -2, -1, 8, -4
1491505137512,-6, -15, -4, -2, -1, -1, 0, -14
1491505137527,-9, -40, -15, -3, 1, 4, 6, -31
1491505137534,-4, 11, 12, 2, 2, 2, 8, -13
1491505137542,17, -22, -10, -4, -2, -1, 6, 21
1491505137556,-1, -19, -12, -1, -1, -2, -3, -15
1491505137564,12, 21, 12, -1, -1, 0, 6, 18
1491505137572,-2, -10, -8, -2, 2, 1, 2, 5
1491505137587,13, 7, -6, 1, 0, 0, 0, -30
1491505137594,-4, 2, 6, 4, 3, 1, -5, -43
1491505137602,-1, 57, 17, 7, 2, -1, 5, 30
1491505137616,-22, -41, -28, -5, -1, -2, -3, 19
1491505137624,14, 7, -18, -7, -3, -4, 3, 107
1491505137632,8, -8, 7, 0, 0, 1, -6, 1
1491505137647,-38, -27, -13, -2, 5, 2, 7, -39
1491505137654,14, 91, 37, 7, 0, 2, 8, 6
1491505137662,-5, -58, -29, -6, -4, 0, 13, 17
1491505137663,-20, -36, -11, -2, -2, -2, -16, -6
1491505137677,-11, -31, -13, -4, -1, -3, -8, 26
1491505137686,41, 41, 23, 4, -1, 1, 7, -13
1491505137692,-16, 43, 7, 2, 2, 1, 4, -23
1491505137707,-19, 56, 37, 4, -1, -1, 0, 0
1491505137714,-16, -22, -1, 0, 0, 2, 4, -37
1491505137723,45, 64, 8, -2, -2, -3, -6, 4
1491505137736,-5, -1, -6, -2, 2, 1, 4, 26
1491505137744,-25, -41, -14, -2, -4, -3, -7, -51
1491505137752,5, -1, 10, 0, 2, 0, -2, 14
1491505137767,14, -13, -5, -1, -2, -1, -1, 55
1491505137774,8, -27, -9, -4, -4, -2, 2, 7
1491505137783,-23, -38, -13, -2, 1, 0, -2, -19
1491505137796,1, -19, -21, -4, -3, -4, -15, -17
1491505137805,-8, -55, -29, -7, -2, -3, -7, 9
1491505137819,6, -4, -8, -5, -4, -2, -1, -29
1491505137826,2, 18, -2, -1, -4, -3, -6, 24
1491505137827,-8, -12, 14, 1, 0, 3, -2, -11
1491505137841,-22, -3, -13, 1, -1, 0, 5, 12
1491505137845,-18, -21, -14, 0, 0, -2, 0, 4
1491505137856,7, 12, 5, -1, 0, 0, -1, 28
1491505137864,-4, 7, 5, 2, -6, -2, -2, 3
1491505137872,-5, -17, -4, 1, 1, 0, -3, 0
1491505137888,11, 9, 5, 0, 2, 3, 5, -4
1491505137896,0, -9, -1, -1, -2, -2, -3, -2
1491505137902,-1, -7, -10, -2, 0, 1, 2, 5
1491505137916,7, -2, 1, -1, 0, 0, -1, -14
1491505137924,1, -12, -11, -4, 0, -1, -3, 14
1491505137932,28, 8, -1, 0, 0, 1, 12, 57
1491505137947,7, 12, -2, -1, -2, -1, -3, 16
1491505137954,-1, 3, -8, -7, 0, -1, -1, 7
1491505137962,3, 25, 11, 1, 0, 1, 3, -13
1491505137976,-3, 4, -1, 1, -2, -2, -5, -14
1491505137984,-4, -9, -4, -3, -1, 0, 3, 4
1491505137985,-17, -23, -10, -1, 2, -2, -4, -17
1491505137992,-4, 7, 12, 4, 1, 1, -1, -14
1491505138007,0, -6, -4, -1, -1, -2, -4, -11
1491505138014,-4, 8, 4, 0, -1, -1, 1, 10
1491505138022,13, -4, 3, 1, -2, 1, 2, 26
1491505138036,-2, 0, 3, 0, 1, 0, -4, -10
1491505138044,-13, -10, 3, 2, -1, 1, -1, -22
1491505138052,-6, -11, -6, 2, -3, -1, -2, 3
1491505138067,8, -24, -13, -2, 0, -2, -3, -12
1491505138074,-1, 2, 1, -2, -2, -2, 3, -3
1491505138082,5, -1, 4, 2, 1, 0, 1, 6
1491505138096,-1, 17, 13, -1, 0, 0, -1, 0
1491505138104,5, -10, 4, 1, 1, -2, -4, -14
1491505138112,-1, 18, 10, 2, 0, 1, 1, -8
1491505138127,-5, 10, -3, -1, -1, -1, -5, -24
1491505138134,-5, 8, 10, 1, 0, 0, -1, 24
1491505138142,-7, 6, -1, -5, -6, 0, 2, 18
1491505138156,9, -6, -5, 0, -4, 0, 4, 30
1491505138164,3, 16, 5, 0, -1, -1, 1, 18
1491505138172,-1, -4, -6, 0, 0, 1, -1, -18
1491505138187,-30, -17, -7, -4, -3, -1, 2, 5
1491505138194,5, 6, -1, -2, -2, -4, -2, 10
1491505138202,1, 0, 4, 2, 0, -1, 0, 8
1491505138203,-14, -10, -2, -5, -3, -1, -2, -4
1491505138216,3, 2, -2, 2, 0, 1, -3, -16
1491505138224,3, -2, 0, -1, -2, -2, 2, 58
1491505138232,-14, 0, -3, -6, -2, -2, -4, -27
1491505138247,-7, 35, 18, 7, -1, 0, -3, -28
1491505138254,-7, -11, -7, 0, 2, -1, -3, -10
1491505138264,5, -3, -3, 0, 2, -2, -2, -25
1491505138276,25, 55, 0, 0, -1, 0, 4, 6
1491505138284,21, -4, -7, -1, 1, 1, 2, -9
1491505138293,-6, -27, -13, -3, 3, -2, 3, -3
1491505138308,-1, 2, 2, 1, -1, -1, -1, -3
1491505138314,-11, -4, 1, 4, 3, 1, 0, -26
1491505138315,-1, -11, -1, -2, -2, -2, -7, 30
1491505138322,-7, -9, -1, 0, 0, -1, -2, -6
1491505138336,-4, 20, 7, 1, 0, 2, 3, -18
1491505138345,-10, -21, -17, -4, 1, -2, -4, -2
1491505138361,-6, -22, -2, -1, -3, -3, -4, -12
1491505138367,4, -10, -15, -3, -2, 1, 0, -11
1491505138374,27, 24, 18, 1, -1, 2, 5, 42
1491505138389,-5, 4, 15, 3, 0, -2, -1, 7
1491505138399,-18, -10, 0, -1, -1, -1, -4, -29
1491505138404,-3, 12, 3, -3, -2, -2, -2, -9
1491505138419,-6, -16, -10, 1, 4, 1, 0, -8
1491505138427,-5, -15, 1, -4, 1, 0, -1, 1
1491505138434,6, -1, -3, -3, -4, -4, -1, 4
1491505138449,11, 30, 23, 6, 1, -2, 0, 22
1491505138456,10, 6, -1, -2, -2, 0, -3, -7
1491505138464,-6, -10, -4, 2, -1, -1, -2, -7
1491505138478,10, 7, 4, -2, -2, -1, -2, -19
1491505138479,-8, -16, -5, -1, 1, -2, -4, 16
1491505138487,-4, -1, -3, -4, -2, -1, -2, 6
1491505138494,-3, 5, 6, -2, -4, -2, -1, 41
1491505138509,-12, -8, -7, -2, -2, 4, 2, -5
1491505138516,20, 40, 8, 7, -2, -1, 1, -11
1491505138532,6, 4, -2, -2, 1, 0, 1, 24
1491505138538,-15, -14, -5, -4, 0, 2, 0, -31
1491505138547,0, 0, -10, -2, -1, 1, -2, -15
1491505138554,-4, 30, 7, -3, -1, -1, 2, -2
1491505138570,-4, -13, 0, 1, -1, -2, -4, -4
1491505138576,-10, -22, -11, -5, -5, 0, 2, -12
1491505138584,-9, -3, -7, -4, 4, 0, -1, -1
1491505138599,7, -7, -1, 0, -2, -2, -2, 1
1491505138607,-8, 6, -5, -7, -5, -2, 2, 7
1491505138608,11, -5, 1, 1, -3, -3, 0, 28
1491505138614,-20, -25, -2, 1, 7, -2, -3, 2
1491505138629,-2, 20, 2, -1, 1, 0, 1, -21
1491505138636,-6, -20, -9, -3, -5, -1, -5, -2
1491505138645,17, -1, 4, 1, -2, -1, 2, 55
1491505138659,14, 10, -1, -2, -1, -1, -2, -3
1491505138667,4, -1, -11, -4, -4, -2, 0, 0
1491505138674,-15, -27, -11, -2, -1, 1, 0, -10
1491505138689,4, 9, 16, 0, 1, -2, -1, 0
1491505138696,9, 0, -5, 2, -2, -1, 0, -3
1491505138704,-7, -6, -6, -2, -1, 0, -2, -14
1491505138718,-11, -5, -5, -8, -1, 0, -2, -40
1491505138719,26, 13, 6, 3, 2, 0, 8, 35
1491505138728,7, 6, 7, 3, -3, -2, -3, -25
1491505138735,-12, -13, -4, -1, 3, -4, -5, 2
1491505138749,-2, -16, -8, 1, 1, -1, 3, 24
1491505138756,-10, -12, 0, -2, 1, 0, 1, -27
1491505138764,-5, -3, -8, -6, -4, -3, -4, -20
1491505138780,-7, 5, 16, 0, 0, -2, -3, 19
1491505138787,-4, 18, 17, 6, 0, 0, -2, 0
1491505138794,-15, -23, -12, -4, -4, -1, -6, -22
1491505138809,-3, -4, 3, 0, 2, -1, 1, -16
1491505138816,-13, 8, -4, -6, -3, 2, 1, -1
1491505138824,3, 6, -3, -4, -3, -2, -3, 14
1491505138838,4, 14, 9, 1, -2, -1, -3, -9
1491505138839,-5, -12, -6, 6, 3, 4, -1, -14
1491505138848,8, -16, -6, -1, 1, 1, -2, -75
1491505138854,5, 2, 7, -5, -4, -3, 3, 22
1491505138869,-5, 22, 16, 4, 3, 0, -2, -15
1491505138876,9, 10, -4, -2, -3, -4, -4, 1
1491505138884,-1, -15, -1, -3, -3, -2, -2, 26
1491505138898,3, 11, 0, 2, 1, -2, -1, -19
1491505138899,5, 4, -1, 3, 1, -2, 0, 12
1491505138907,-1, 5, -13, -9, -6, 0, -3, 11
1491505138914,7, 12, 2, 0, -5, -2, -3, -7
1491505138929,-10, 4, 6, 1, 7, 0, -4, -62
1491505138930,-6, -20, -15, -6, -2, 0, 5, 20
1491505138936,7, 35, 14, 6, 0, -1, -2, -20
1491505138944,0, -18, -12, -3, -1, 0, 2, 29
1491505138958,1, 12, -4, -3, -3, -1, 0, -23
1491505138959,5, -4, -10, -6, -3, -2, -1, -22
1491505138967,24, 0, -5, 0, 1, -4, -6, -19
1491505138974,-4, -8, -6, -5, 0, 1, 2, -14
1491505138989,-4, -3, 6, 5, 3, 1, 0, 2
1491505138996,-2, -8, -5, -1, 1, -1, -1, 18
1491505139004,-8, -4, 2, 1, -2, -1, -1, 3
1491505139019,9, -6, 8, 9, 5, -3, -1, 37
1491505139028,-7, -4, 1, -1, -3, -2, 1, -22
1491505139034,-8, -13, -15, -14, -7, -1, 2, 11
1491505139049,-6, 18, 8, 0, 0, 1, 1, 4
1491505139056,0, 54, 25, 2, -5, -2, -3, -23
1491505139064,-21, -25, -21, -5, 0, -1, -4, 29
1491505139078,27, 9, 2, -6, -2, 0, 0, 7
1491505139079,20, -11, 2, 11, 9, 3, 0, 16
1491505139086,-6, 25, 3, -3, -4, -1, 5, 6
1491505139087,13, 11, 0, 1, 0, -2, -2, -8
1491505139101,-10, -21, -7, -5, 1, -1, -2, 29
1491505139109,-7, 5, 8, 1, 2, 1, -1, -17
1491505139124,1, -2, -5, -2, -3, -3, -2, -22
1491505139125,5, 9, 6, 3, 0, -1, 1, 9
1491505139140,-2, 3, -1, 1, 1, 0, -2, -3
1491505139147,10, -8, -8, -7, -9, -2, 5, 61
1491505139163,-8, 4, -2, -2, -2, 3, 0, -16
1491505139169,-10, 5, 13, -4, -1, -1, -4, -29
1491505139178,4, -19, -11, -3, -1, 0, 7, 37
1491505139184,-12, -10, -6, 0, 0, 0, -5, -10
1491505139200,-11, -19, -3, 2, 9, 2, -3, -6
1491505139207,8, 34, 13, 1, 1, 2, 2, 14
1491505139222,-4, -1, 1, 0, -2, -1, 5, 6
1491505139229,-2, 6, -7, -5, -4, -2, -3, -16
1491505139237,-1, -8, -4, -6, -6, -3, -1, -6
1491505139244,0, -5, 1, 4, 12, -1, -14, -24
1491505139260,-13, -15, -12, -6, -1, -1, -5, -41
1491505139267,4, 14, -8, -2, -4, 1, 6, 8
1491505139283,-8, -11, -5, -2, -3, -4, -4, 5
1491505139289,-2, -15, -2, 2, 1, 1, 3, -4
1491505139297,3, 21, -1, -5, -6, -4, -2, 8
1491505139313,1, -5, 0, 2, 19, 4, -1, -3
1491505139320,-3, -4, 0, -3, -2, -1, -1, -26
1491505139327,2, -4, -1, 5, -3, -3, 0, 3
1491505139342,1, 3, 6, 6, 3, 4, 2, -8
1491505139349,0, -4, -4, -3, 0, -2, 0, 3
1491505139357,4, 2, 0, 0, -4, 0, -16, -10
1491505139372,2, 1, 4, 2, -2, -2, -2, -5
1491505139383,-3, 9, 7, 2, 1, 0, 3, -42
1491505139395,-6, -9, -4, -7, -6, -2, -2, -2
1491505139402,1, 2, 1, 0, -1, -2, 1, 12
1491505139410,-1, -25, -12, -4, -5, -3, 0, -8
1491505139417,2, 11, 6, 1, 1, 0, 4, 12
1491505139432,-1, 0, -3, -1, -3, -1, 1, 4
1491505139440,0, -5, -2, -2, -1, -1, 0, 19
1491505139448,0, 9, 4, 1, -3, 0, 0, 11
1491505139463,1, 0, 1, -3, -3, -1, -3, 11
1491505139469,-1, 1, 0, -4, -2, 0, 2, 4
1491505139477,-1, 1, 3, -2, -2, -1, 0, 6
1491505139492,-3, -16, -9, -2, -4, -2, -2, -4
1491505139500,-2, 10, 1, -2, 1, 0, 0, -3
1491505139507,3, -9, 1, 2, -1, -2, -2, 4
1491505139522,-4, 9, -8, -4, 0, 1, -1, -11
1491505139523,-2, -19, -7, -3, -2, -2, -3, 9
1491505139529,-7, -10, -7, 1, -1, -2, -1, 1
1491505139538,6, 8, 3, -1, -2, 0, -2, 7
1491505139552,3, 23, 12, 1, 0, 0, 0, 0
1491505139560,0, 0, -3, 2, 0, -1, -1, 10
1491505139567,-2, 3, 1, -3, -1, -1, 0, 11
1491505139582,-2, -1, 2, 0, -2, -1, -2, 0
1491505139583,-1, 4, -4, -1, -2, 0, -1, 8
1491505139589,2, 9, 8, 0, -1, -2, -1, 8
1491505139597,1, 5, 5, 1, -1, -2, 0, 5
1491505139612,0, 8, 2, 0, 0, -1, -1, 1
1491505139620,-4, -14, -4, 0, -1, -1, -1, -6
1491505139627,-1, -9, -8, -3, -2, 0, 0, 0
1491505139642,-3, -29, -20, -3, -2, 0, 0, 10
1491505139651,-1, -10, -5, -1, -3, -1, 2, 1
1491505139664,-4, -10, -7, -1, -3, -1, -2, -9
1491505139672,-1, 3, 2, 1, -1, -2, -2, -9
1491505139680,0, 6, 4, -3, 1, -2, 0, -10
1491505139687,-3, -2, -4, -4, -1, 0, 1, 1
1491505139704,-1, 4, 3, 0, 1, -1, -2, 3
1491505139709,-3, -2, -3, -1, 0, 0, -1, 0
1491505139725,1, 6, 5, -2, 1, 0, 1, 5
1491505139732,-1, 0, 0, -1, -2, 0, 0, -1
1491505139742,0, 5, 2, 0, -1, 1, 0, -2
1491505139747,-6, -25, -17, -6, -1, 0, -3, -12
1491505139762,2, 22, 7, 5, 2, 2, 0, -9
1491505139769,-1, 0, 2, 0, 1, 0, 1, 4
1491505139785,-5, -26, -12, -4, -1, -1, -2, -3
1491505139786,0, 5, -2, -4, -2, -2, -1, 4
1491505139792,2, 7, 2, -6, -3, 0, -1, 0
1491505139794,-1, -6, -3, -3, -2, 0, -1, 4
1491505139800,-1, 0, 2, -2, 0, -1, 0, 0
1491505139807,1, 8, 6, 1, -1, -2, 0, -5
1491505139824,-3, -3, -2, 0, -1, 0, -1, -8
1491505139830,1, 8, 6, 3, -2, 1, -1, -1
1491505139845,-2, -19, -5, 0, 1, -1, 2, -1
1491505139852,-2, -7, -4, 1, 0, -1, -2, 3
1491505139860,0, -3, 1, -2, -1, 0, -1, -2
1491505139868,1, 5, 1, 1, 0, -1, -1, 2
1491505139883,1, -8, -1, 0, -1, -1, 0, -3
1491505139890,-3, -6, -1, -2, 1, 0, -1, -5
1491505139909,-1, -14, -3, -1, -2, -1, -1, -4
1491505139912,1, 24, 20, -1, -1, 0, 0, 1
1491505139920,1, 2, 0, -1, -1, -2, -3, 1
1491505139927,0, -3, -5, 1, -1, -2, 0, 2
1491505139942,-1, 1, -2, 1, 1, 2, 0, -2
1491505139950,0, 3, 5, -3, -1, 0, 2, -1
1491505139951,0, -3, -8, -3, -2, -2, -4, -5
1491505139965,-2, -3, -6, -3, -4, 0, -7, 3
1491505139972,2, -2, -2, 1, 0, 0, 1, -1
1491505139980,0, 15, 2, -1, -1, -3, 1, -2
1491505139987,0, 3, 10, 2, 0, -1, -4, 0
1491505140004,-2, -3, -2, 0, -2, 0, 1, 0
1491505140011,1, -16, -8, -1, -2, -1, 3, -3
1491505140026,-2, -4, -9, -2, -1, -3, -3, -6
1491505140032,-3, -1, -8, -2, 0, -2, -1, -3
1491505140040,-3, -2, 0, 1, 0, 2, 2, 0
1491505140047,0, 5, -2, -1, 0, 1, -3, -1
1491505140062,-3, -8, -4, -4, 0, -3, -9, 1
1491505140069,4, 28, 3, 2, 0, 0, -2, 0
1491505140085,0, 0, 2, -2, -2, -1, 2, -4
1491505140092,-3, -10, -4, -3, -1, -2, -3, -2
1491505140100,0, 1, -2, 1, -1, 1, 1, -6
1491505140107,-4, -7, 0, -2, 0, -3, 1, -4
1491505140122,2, -2, 0, -3, -1, -1, 1, -1
1491505140129,-2, 5, 14, 1, -2, 2, -1, 4
1491505140145,0, 4, 0, -2, 0, -1, 3, -2
1491505140152,-2, -17, -11, -4, -1, -1, -1, -1
1491505140160,-2, 20, 1, 1, -1, 1, -3, -2
1491505140161,2, -3, 3, 0, 0, 0, -3, -4
1491505140167,0, -6, -5, -1, 1, -2, -15, -5
1491505140182,-1, -2, -1, 0, -3, -1, 6, 0
1491505140189,1, 8, -1, 1, -1, -1, 4, -1
1491505140197,0, 0, 2, 1, 2, 1, -4, -1
1491505140212,2, -1, 0, -1, -1, 0, 5, -1
1491505140220,0, 7, -2, -1, -1, 0, 1, 3
1491505140235,2, 25, 10, 1, 0, -3, 0, 1
1491505140242,-2, -7, -6, 1, -2, -2, -1, -6
1491505140249,0, 9, -10, -2, -2, 0, -1, 2
1491505140264,-1, 4, 1, -3, -1, -2, 0, 2
1491505140271,-3, -26, -12, -4, -1, 1, 3, -3
1491505140279,1, 27, 25, 0, -3, -1, -2, 2
1491505140280,-2, -4, -4, -2, -1, -1, -3, -4
1491505140294,-3, 4, 2, -1, -2, -1, 0, -1
1491505140302,-3, -2, -6, 0, -3, -2, -2, -2
1491505140303,-2, -6, -1, -1, 0, 0, -1, -2
1491505140309,1, 23, 7, 1, -1, 0, -2, -2
1491505140324,1, 9, 5, 0, 0, 0, 10, 2
1491505140333,-1, -5, 1, 0, 0, -1, 4, -5
1491505140339,-2, -9, -6, -2, 0, 0, 1, 1
1491505140340,3, -1, -1, 0, -2, -1, 1, -1
1491505140354,2, 6, -3, 1, -2, -1, 0, -4
1491505140362,-2, -12, -7, -1, 0, 0, -3, -1
1491505140370,-1, -12, -1, -1, 1, -1, -3, 0
1491505140385,-2, -4, -2, -3, -1, -3, -3, -3
1491505140391,-2, -15, -4, -3, 0, -2, -1, 0
1491505140407,-2, -5, -1, -1, 0, -2, -2, 3
1491505140415,-4, -10, -4, 0, -2, 0, -2, -1
1491505140422,-1, 10, 4, 0, 0, 0, -4, 3
1491505140429,-2, -6, 2, -1, -1, -1, -2, 0
1491505140444,0, -1, -3, -2, 0, -1, 0, -5
1491505140452,-2, -6, -5, -1, -2, -2, -3, -4
1491505140459,2, -2, 2, -1, -1, -1, 0, -2
1491505140460,-3, -1, 1, -1, 2, -1, -2, -2
1491505140474,-2, 4, 2, -2, -1, 0, 1, -1
1491505140482,-1, -10, -3, -3, -3, -1, -5, -1
1491505140489,-1, 3, -3, 0, 0, 1, 1, -1
1491505140504,0, -9, -10, -2, -3, -2, -2, -3
1491505140511,1, -6, -6, -3, 0, 0, -2, -3
1491505140521,-2, 2, -1, -1, -1, -1, -16, -3
1491505140534,0, 5, -1, 1, -1, -2, 0, -1
1491505140543,-1, 0, 2, -1, -1, 0, 2, -2
1491505140549,-3, -4, -2, -3, 1, -2, -5, -3
1491505140564,4, 35, 13, 2, 0, -1, 2, -1
1491505140573,2, -11, -2, 0, -2, 1, 4, -1
1491505140581,2, 5, 15, 1, 2, 3, 1, 1
1491505140594,-1, 1, 1, -2, -1, -1, 0, 2
1491505140603,0, -2, -1, -2, -1, -2, 0, -2
1491505140609,-2, -5, 0, -1, 3, 1, -4, -3
1491505140625,-3, 0, -6, 0, 0, -1, 3, -2
1491505140632,-1, -2, -3, -1, -1, -3, 0, -4
1491505140640,2, -2, -1, 1, 0, -2, 3, -5
1491505140654,-1, -1, 2, -2, -1, -3, 4, 0
1491505140662,-2, -9, -8, -2, -1, -1, -2, -5
1491505140669,0, -5, -4, -1, -2, 0, -2, 0
1491505140684,1, -15, -5, -2, -2, -1, 0, 1
1491505140691,2, 11, 0, 0, -2, -1, -5, -1
1491505140699,1, 0, -1, 1, 0, -1, 0, -3
1491505140700,-3, -3, -6, -1, -3, 0, 0, 2
1491505140714,-1, -7, -4, -1, -2, -2, 2, 0
1491505140722,-3, 4, 14, -1, -2, -2, -5, -3
1491505140729,-2, -8, -5, -1, 0, 2, -3, -1
1491505140744,-4, -18, -7, -1, -3, -2, -2, 3
1491505140752,-1, -2, -1, 0, 0, -1, -2, -2
1491505140759,-1, -1, -4, 0, -1, -3, 0, 1
1491505140774,1, 7, 1, 1, 0, 1, 3, -1
1491505140782,0, 15, 0, 0, 0, 0, 0, -3
1491505140790,-1, -1, 0, -3, -2, -2, -2, -2
1491505140804,0, -2, -4, 0, 2, 1, -2, -4
1491505140813,2, -8, -5, -2, -3, -1, 3, 2
1491505140820,-1, -10, -11, -4, -2, -1, -2, 0
1491505140834,-3, -10, -1, -1, -1, -1, -2, -4
1491505140842,-1, 0, 0, -1, 2, -2, 1, -5
1491505140849,0, 9, 10, 1, 0, -2, -8, -1
1491505140865,0, -4, -4, -3, -3, -2, 3, -5
1491505140872,-1, 2, -4, -2, -1, -1, -1, -5
1491505140880,0, 12, 7, 1, -1, 0, -1, -2
1491505140894,2, 0, 0, 1, 1, 0, 1, 0
1491505140902,1, 13, 4, -2, -2, -3, -2, 0
1491505140909,-2, 3, -2, -1, -1, -1, -1, -1
1491505140924,0, -9, -5, -1, -2, 0, -1, -2
1491505140932,0, -1, 0, 1, -1, 0, -1, 0
1491505140940,2, 5, 2, -1, -1, 0, -3, -1
1491505140954,-1, 22, 22, 1, 1, 1, -2, -1
1491505140963,-4, 2, 5, 2, 0, -2, -1, -3
1491505140969,0, -25, -12, -3, -2, -1, 8, 1
1491505140984,-2, -17, -2, -1, -1, -1, 2, -5
1491505140992,-3, -1, -5, 1, -3, -3, -2, -2
1491505141000,1, -3, -2, -2, -1, 1, -1, 0
1491505141014,3, 0, -3, -2, -1, 0, -3, -2
1491505141023,1, 28, 27, 3, 2, -1, -7, -4
1491505141029,-2, 4, 4, 0, 0, 0, -2, 1
1491505141044,-1, -8, -7, -1, 0, -2, -3, 1
1491505141051,0, 17, 7, 1, -2, 0, -2, -1
1491505141052,-1, -1, -2, -1, 1, 2, 3, 0
1491505141060,-4, -23, -9, -3, 0, 0, 1, 0
1491505141077,0, -2, -4, -1, -2, -2, -5, -3
1491505141084,1, -3, -4, 0, -1, 1, 1, 2
1491505141089,0, -10, -1, -2, -2, -1, -2, -3
1491505141104,-2, -6, -4, 0, 0, 0, 0, -1
1491505141111,-3, -9, -7, -3, 2, 1, -1, 0
1491505141112,2, 9, 13, 1, 1, -1, 0, -3
1491505141120,0, -1, -8, -2, -1, 1, 4, -4
1491505141134,0, -11, -5, -1, -1, -1, -4, -1
1491505141143,3, 11, 6, 1, 0, 2, 1, 0
1491505141156,-1, 29, 5, 2, -2, -3, 3, -1
1491505141164,-1, -3, -7, -2, 0, -3, -3, -1
1491505141172,-1, -3, -4, -3, -2, 0, -4, -1
1491505141187,-2, -6, -6, -1, -1, -2, -4, -2
1491505141194,-1, 9, 6, -2, 0, 1, -2, 0
1491505141203,-1, -11, -5, -1, 0, 0, 1, 0
1491505141216,-1, -13, -9, -3, 1, -1, -2, -4
1491505141224,1, 12, 5, 2, -1, 0, 0, 1
1491505141231,0, -5, 0, 0, -1, 0, -4, -4
1491505141232,-1, 4, -5, 1, -3, -1, 1, 3
1491505141247,-3, -3, -4, -1, -1, -1, -16, -4
1491505141254,-2, 3, -6, -2, -1, -3, -1, 0
1491505141263,0, -7, -10, 0, -2, 1, 1, -2
1491505141276,-4, -7, -10, -2, -1, 1, -2, -2
1491505141285,1, 4, 11, 2, 1, -1, 1, 0
1491505141292,1, -15, 0, 0, -2, 0, 0, -3
1491505141306,-3, 6, 0, 0, 0, -1, -5, -1
1491505141307,-1, -15, -6, -1, -2, -1, 3, 0
1491505141314,1, 1, 2, 0, 1, -1, 0, 0
1491505141324,2, 33, 8, -1, -1, -1, -13, 0
1491505141336,-1, 10, 11, 1, 1, 0, -2, -1
1491505141344,-4, -4, 2, 1, -1, -2, 3, 1
1491505141351,-1, -6, -7, -3, -2, -1, -5, -5
1491505141368,3, 18, 10, 0, -2, -2, 1, 3
1491505141374,0, -5, -1, -2, -1, 1, 2, -2
1491505141384,-2, -8, -4, -4, 1, -1, 0, -3
1491505141396,-1, 2, -4, -1, -1, -2, 1, -4
1491505141404,-1, -13, -6, -2, -1, 0, 1, -3
1491505141412,-4, -7, -2, 2, -1, -1, -1, -3
1491505141427,-1, -13, -10, -4, -1, -1, 3, -3
1491505141434,1, -1, -5, -1, -1, -1, 3, 2
1491505141442,-2, -3, 0, -2, -2, -1, 1, -2
1491505141456,0, 0, 0, 0, 1, -1, -3, 2
1491505141464,0, 2, 2, 0, -1, 1, 5, -1
1491505141465,-2, -5, -4, 0, 0, -1, -4, -1
1491505141471,1, 7, 8, 1, -1, -2, 3, 2
1491505141487,0, 3, 0, 0, 0, 0, 2, 1
1491505141495,-3, -5, -3, 0, 1, 0, -4, -2
1491505141505,-3, -25, -7, -3, 0, 1, 1, -2
1491505141516,-5, -13, -10, -4, -4, -2, -3, -5
1491505141524,-3, -6, -4, 0, 0, -2, -2, -5
1491505141531,-4, -10, -5, 0, -2, -1, 0, 0
1491505141532,1, -12, -10, 0, -1, -1, -2, -1
1491505141547,-3, 0, -2, -3, -1, 0, 1, -2
1491505141548,3, 31, 7, 1, -3, -2, 1, 1
1491505141554,0, 8, 5, -1, 1, 1, -1, 0
1491505141563,-1, 0, 4, -1, -1, 1, 0, -2
1491505141576,2, 2, 1, 1, 0, 0, -1, 0
1491505141584,-1, -5, -8, -2, -1, -2, 3, 1
1491505141593,0, -7, -1, -2, -1, -2, 3, -2
1491505141606,0, 2, -1, -1, -1, -2, -2, 0
1491505141607,0, 2, 3, 1, -1, 0, 1, -2
1491505141614,-2, 3, 2, -2, 0, -1, -2, -3
1491505141622,2, 31, 22, 1, 0, -1, -2, 0
1491505141636,-1, -3, -4, 0, -1, 0, 1, -1
1491505141644,-2, -13, -7, -1, -3, -1, -2, -1
1491505141658,-1, -2, 1, 0, 0, 1, 0, -1
1491505141666,-3, -6, -5, -2, -3, -3, -3, -3
1491505141667,2, 13, 9, 1, 1, 1, -2, -1
1491505141681,0, -3, -2, 1, -1, 0, 0, 0
1491505141683,-2, -17, -10, -1, -1, -1, -2, -3
1491505141696,0, 0, -1, 0, -1, 0, -2, -1
1491505141705,-1, -5, -2, -1, 1, 0, -3, -3
1491505141712,1, -1, -3, -2, -2, -2, -2, -3
1491505141726,-1, -12, -9, -2, -1, -1, -1, -1
1491505141734,-1, 4, -1, 0, -2, -1, -2, -5
1491505141751,-1, 0, -3, -1, -2, -1, -1, -2
1491505141756,0, -3, -1, -1, -1, 1, -1, -1
1491505141764,0, -5, -1, 0, -1, 0, 0, -1
1491505141771,-1, 1, 0, -1, -2, -1, -1, 1
1491505141789,-2, -5, -7, -2, 1, -1, 2, -1
1491505141794,2, 11, 16, 2, 1, 1, -1, 1
1491505141803,-1, -4, -1, 0, -1, -1, 1, 1
1491505141816,1, 0, -1, -3, -3, -2, -1, 0
1491505141824,-4, -12, -3, -2, -2, -2, -1, -5
1491505141833,-3, -9, -5, -1, 0, 0, -2, -3
1491505141847,-1, -2, -2, -2, -2, 0, -1, 1
1491505141854,0, 3, -1, 0, 0, -2, 1, 2
1491505141862,-1, 6, 3, -1, -1, -1, -4, 0
1491505141877,1, 8, 0, 0, -1, 0, 0, -1
1491505141885,0, -2, -3, 0, 0, -2, -3, 1
1491505141891,-2, -24, -14, -4, -1, -3, -2, -3
1491505141906,3, 19, 10, 2, 1, 0, -3, -2
1491505141907,3, 15, 2, -1, 1, -2, 0, 1
1491505141914,-4, -4, -5, 0, 0, -1, 1, 0
1491505141923,0, -1, 1, -2, -1, 0, 0, -1
1491505141937,0, 5, 4, 0, 2, -1, -1, -2
1491505141944,0, -4, -1, 0, 1, -1, -1, -1
1491505141951,-2, 0, 0, -1, -2, 1, 1, -1
1491505141967,-2, -3, 1, 0, -1, -1, -2, -2
1491505141974,3, -1, 2, -1, 0, -1, 0, 0
1491505141982,-3, -3, 0, 0, 0, -1, 0, -3
1491505141997,1, 22, 20, 2, 0, -1, 0, 3
1491505142005,0, 2, 2, -2, -2, 1, 1, 2
1491505142012,-2, -15, -11, -2, -1, -1, 1, -2
1491505142027,2, -8, 2, -1, 1, -1, -2, 0
1491505142034,-2, -2, -2, -2, -1, -1, -1, -3
1491505142043,-3, -5, -7, -2, -1, -2, -1, -6
1491505142057,1, 5, 0, -2, -1, -2, -4, -3
1491505142064,-2, -4, -2, 0, 0, -1, 2, -4
1491505142065,0, 0, -5, -3, -2, -1, 0, 0
1491505142078,0, 21, 19, 4, 1, -2, -2, -3
1491505142087,-1, 6, 1, 0, 0, 0, -3, -1
1491505142095,-1, -7, -9, -3, -2, 0, 1, -2
1491505142109,-2, 7, 7, 1, 1, -1, -1, -4
1491505142116,-4, -25, -10, -4, -2, -2, 0, -2
1491505142125,-1, -12, -13, -1, -1, -3, -2, -3
1491505142138,0, -2, -6, -3, -1, -2, 1, -1
1491505142146,-4, -8, 2, -3, 0, -2, -2, 0
1491505142147,-1, -5, -5, -1, 0, -1, -1, 1
1491505142154,2, -11, -7, 1, -2, 2, -1, -2
1491505142169,2, 12, 1, 0, -1, -1, -1, 0
1491505142178,-1, 9, 1, -3, -2, -1, -1, -3
1491505142184,-2, -5, -2, -3, -3, -3, -2, -1
1491505142185,-1, -4, -1, 0, 0, 2, 2, -1
1491505142198,-1, 1, -2, -1, 1, -2, 0, 1
1491505142207,-1, -3, 0, -1, -3, 0, -1, -2
1491505142214,2, 31, 7, 2, 0, 0, -4, -4
1491505142229,-4, -8, -3, 0, 1, 1, -1, -2
1491505142230,0, 0, 0, -2, 0, 0, 0, -1
1491505142237,0, -3, -4, -2, -1, -1, 0, -1
1491505142245,-1, 15, 15, 3, -1, -2, 0, -3
1491505142259,0, -5, -1, -1, 1, 0, 0, 1
1491505142267,0, -3, -2, -1, -2, -1, -1, 0
1491505142274,-3, -6, -3, -2, -1, -1, -1, -2
1491505142289,0, -12, -4, 0, 1, 0, 0, 1
1491505142297,-2, -6, -4, 0, -1, 0, 0, -1
1491505142305,-1, -2, -4, -1, -1, 1, -2, -2
1491505142318,2, 10, 5, 0, 0, 0, -1, 1
1491505142327,-2, 1, -2, -1, 0, -2, -2, -3
1491505142336,1, 21, 14, 3, 0, -3, -2, 2
1491505142349,1, 0, 2, -1, 0, 0, 0, -1
1491505142357,-1, -8, -4, -1, -1, 1, -3, -1
1491505142365,-2, 0, -2, -1, -1, -1, -2, -2
1491505142388,0, -5, -3, -2, -2, -1, 0, -4
1491505142391,1, -5, -5, 0, -2, 0, 0, -2
1491505142394,0, -7, -2, -1, -1, -1, 0, -1
1491505142409,-1, -4, -3, -2, 0, -2, -1, -3
1491505142417,-1, -12, -5, -1, -1, -1, 0, 0
1491505142425,1, 22, 6, 0, 1, 1, 2, -1
1491505142426,-3, -6, -5, -1, -2, -1, -4, -2
1491505142438,-2, -21, -9, -1, -2, -1, -1, -4
1491505142447,0, 15, 5, 0, -1, -1, -1, -3
1491505142454,-3, -3, -5, -1, -1, -1, 0, 0
1491505142469,0, -7, -6, -1, 0, -3, 0, -3
1491505142477,-3, 0, -2, -1, -2, -3, -2, -4
1491505142485,-3, -1, 0, -1, -1, 0, 1, -1
1491505142499,-1, 5, 3, -2, 1, 2, 0, 0
1491505142507,-1, -4, -3, -2, -1, 0, -3, -1
1491505142514,-1, -7, -9, 1, 0, -2, -3, -5
1491505142529,3, 26, 6, 0, 0, 0, 1, 3
1491505142537,3, 31, 11, -1, 0, -1, 0, 2
1491505142545,-3, -14, -7, -1, -2, -1, -1, -3
1491505142558,0, 2, 3, 0, -1, 2, -1, 0
1491505142566,2, -5, -2, 0, 0, -2, 0, -4
1491505142567,-3, -4, -1, -2, 0, 0, 0, -1
1491505142574,-1, -7, -2, 0, -1, 0, 1, 0
1491505142589,-1, -19, -7, 0, 1, -2, 0, 1
1491505142597,-1, -13, -8, -2, 0, 0, 0, -3
1491505142604,-1, 0, 0, 0, -2, 0, 0, 4
1491505142605,-1, -7, 0, 1, 0, -1, -1, -1
1491505142618,0, -2, 0, 0, -2, -2, -1, 1
1491505142627,-3, 0, 1, -2, -2, 0, 0, 0
1491505142634,-1, 16, 4, -1, 0, 1, 0, -4
1491505142649,-1, -4, 2, 0, 0, -1, -3, 0
1491505142656,-2, -10, -3, -1, -2, -2, -2, -1
1491505142665,0, -4, -3, -1, -2, -2, -2, 0
1491505142679,2, 10, 12, 2, 0, 1, -1, -1
1491505142687,2, 5, 2, 0, -1, -1, 1, 0
1491505142694,-3, -3, -4, -3, -3, -1, -3, -1
1491505142710,2, 4, 1, 0, 0, -2, -2, -2
1491505142717,0, -14, -6, 0, 1, -3, 0, -2
1491505142725,0, 14, 4, 0, 0, 0, 2, -1
1491505142738,-1, 4, 2, 1, -1, -1, 0, 0
1491505142747,-1, 8, 18, 1, -1, -1, -1, 2
1491505142754,-3, -12, -7, -2, -3, -1, -1, -2
1491505142769,-2, -10, -11, -4, -1, 1, -3, -4
1491505142776,1, 13, 3, 0, 0, -2, 0, 3
1491505142777,-2, -3, -5, -1, -1, -2, -1, -1
1491505142785,-2, -5, -5, -2, 0, 0, 1, 0
1491505142798,-2, -3, -4, -2, 1, 0, -1, -4
1491505142799,1, -2, -1, -1, 1, -1, -1, 1
1491505142807,-3, -3, -2, 1, -2, -1, -3, -4
1491505142821,-1, -1, 0, 0, -1, 0, -2, -1
1491505142830,-2, -11, -5, -3, -2, 0, -2, -2
1491505142837,2, 4, 6, -1, 1, 1, -1, -4
1491505142845,0, -3, -3, -2, -3, -2, -2, -2
1491505142858,0, -12, -8, -3, -1, 1, 2, 1
1491505142859,-2, -2, -2, -1, -2, 0, -1, 1
1491505142867,-2, -8, -4, -2, 1, -1, 1, -1
1491505142874,3, 9, 2, 1, -1, -2, 1, 0
1491505142890,1, 5, -2, 0, -2, 0, -1, 0
1491505142897,-3, -2, -4, -4, -1, 0, -2, -3
1491505142905,-1, -5, -7, -2, 0, -1, 1, -1
1491505142919,-2, -9, -7, -1, -2, -1, -2, -3
1491505142927,1, 4, 2, -1, 0, 0, 1, 0
1491505142941,0, -2, -2, 0, -2, 1, -2, -3
1491505142949,-2, 5, -1, 1, 1, -1, 2, 2
1491505142965,-1, 3, 6, 4, 2, -1, -1, -2
1491505142966,-4, -5, 0, -1, -1, 0, 0, -2
1491505142978,0, 1, -1, -1, 0, 0, 1, 1
1491505142987,2, -1, 0, 0, 0, 0, 0, 1
1491505142994,-1, 0, -2, -1, -1, 0, 1, 3
1491505143009,-3, -4, -2, -3, -3, -3, -5, 0
1491505143017,-2, -9, -4, -3, 0, 0, 0, -2
1491505143032,4, 23, 13, 0, 2, 0, 0, -3
1491505143038,2, 2, -4, 0, -2, -1, -1, -3
1491505143047,-1, -10, -3, 0, -1, 0, -3, -6
1491505143061,-4, -10, -3, -2, 1, -1, -1, -2
1491505143069,0, -4, -8, 0, 0, -1, 0, -7
1491505143076,1, -7, 1, -3, 0, 0, -5, -10
1491505143077,0, -7, -6, -3, -1, 1, -1, -11
1491505143092,2, -3, -3, -2, 0, 2, -1, -10
1491505143098,-6, 0, -1, 2, -3, -3, 1, 25
1491505143106,-5, 0, 4, 1, -4, -7, -1, 21
1491505143107,-5, 6, 5, 1, -3, -4, 1, 17
1491505143121,-1, 10, 2, -2, 0, -1, 0, -9
1491505143130,0, 4, 1, -1, 0, 0, -1, -9
1491505143136,1, -8, -4, -3, -1, 0, 0, -10
1491505143137,1, 4, -2, -1, -1, -1, -5, -11
1491505143151,2, 4, 11, 1, 2, -1, -3, -10
1491505143152,-1, -9, -4, -3, -1, -1, -1, -3
1491505143158,-2, -10, -3, 1, -2, 0, 0, 1
1491505143167,-1, -12, -9, -3, -1, 0, 0, 1
1491505143181,0, 0, -2, -1, 0, -1, 0, -3
1491505143189,-2, -7, -2, -1, -2, -1, 0, 1
1491505143196,0, -1, -2, -1, -1, -1, 1, -2
1491505143212,-2, -4, -3, -2, -5, -2, -2, -2
1491505143218,-1, 4, 0, 0, 0, -1, -3, -2
1491505143227,3, 21, 2, 2, 2, -2, -2, 1
1491505143241,1, 3, 0, -1, 0, -1, 1, 2
1491505143249,-4, -7, -7, 0, 0, 0, -3, -4
1491505143262,-1, -8, -4, -1, -2, -1, -2, -4
1491505143272,2, 25, 9, 1, -1, -1, -2, 11
1491505143278,-2, -10, 1, -2, 0, 0, -2, -8
1491505143287,2, -15, -5, -3, 1, 3, 0, -11
1491505143301,-1, -1, 1, 1, -1, 1, 1, 4
1491505143310,-1, 0, 2, -1, -1, -1, 0, -1
1491505143317,-2, -11, -2, 1, 0, -2, -3, -1
1491505143332,-1, 2, 15, 3, 0, 0, 2, 2
1491505143338,0, 11, 2, -3, -2, -1, 1, 0
1491505143347,-2, 1, 0, -2, -1, -3, -5, -4
1491505143361,-2, 1, 0, 0, 0, 0, -2, -1
1491505143369,-3, 2, 2, 0, -1, 1, 1, 0
1491505143376,2, 21, 5, 0, 0, 0, 0, 3
1491505143392,-1, -7, -1, 0, 0, 0, 0, -7
1491505143393,0, -7, -6, 0, 0, -2, 0, 2
1491505143398,-2, -10, -4, -2, -1, -1, 0, -1
1491505143407,-1, -8, -5, -1, -1, 0, 0, 2
1491505143421,1, -3, -1, 0, 0, -1, 0, -2
1491505143429,-1, -3, -1, -2, 0, 0, -3, -5
1491505143437,2, 3, 1, -1, 1, 0, 1, 0
1491505143452,0, -1, -4, -1, -1, 1, -2, -2
1491505143458,-1, -1, 6, -1, 0, 1, 2, -4
1491505143467,-4, 0, 1, 0, 0, -3, 0, -1
1491505143481,-6, -18, -6, -3, -2, -2, -1, 0
1491505143489,0, 1, -2, 0, -2, -2, 0, -1
1491505143496,0, -8, -12, -2, -1, -2, -2, -1
1491505143512,6, 35, 4, 0, 0, -1, 0, -1
1491505143519,0, -7, -4, -1, -2, 1, 0, 1
1491505143527,-1, -11, -3, -4, -1, -1, 0, -5
1491505143541,0, 4, 0, -3, -1, -1, -2, -6
1491505143549,0, 5, -3, 0, 0, 1, -2, -9
1491505143550,0, -9, -1, 0, 1, 0, 2, -3
1491505143556,-3, -1, -6, -2, -2, 1, 1, 1
1491505143557,3, 5, 2, 0, 0, -1, -3, 0
1491505143572,-4, -4, -3, -1, -1, -1, 0, -2
1491505143578,-2, 0, 0, 1, 0, 2, 1, -1
1491505143587,-2, -19, -13, -4, 0, -1, -3, -8
1491505143601,-4, -8, -5, -2, -2, -3, -1, -5
1491505143609,-4, -4, -2, 0, -3, -1, -2, 5
1491505143616,-2, 1, 2, 1, -2, -2, -1, 4
1491505143633,-1, 3, -1, 0, -1, -2, 0, -2
1491505143638,0, 4, 1, 0, -1, 0, -2, -5
1491505143647,1, 10, 7, 0, 0, 1, -1, -5
1491505143661,3, -7, -4, -2, 1, -3, -1, -2
1491505143669,-4, -6, -1, -2, 0, 0, -2, -2
1491505143677,-1, 23, -3, -1, -2, 0, 1, 5
1491505143692,-2, -8, -2, 0, 0, -3, 0, 0
1491505143699,2, -13, -8, 0, -1, 1, 2, -1
1491505143707,0, 3, 9, 1, 0, 2, 0, -1
1491505143721,-3, -13, -2, -1, 0, 1, -3, -1
1491505143730,3, -8, -6, -2, -1, 0, 0, 0
1491505143737,0, 7, 6, 1, -1, 1, -1, -5
1491505143752,-2, -3, -5, -3, 2, 1, -3, -8
1491505143759,1, 21, 0, 1, -1, 0, -2, -2
1491505143767,-1, -5, -3, 3, -2, -2, 1, 10
1491505143782,-4, 8, 10, 1, -4, -6, -2, 12
1491505143789,-7, 9, 3, 0, -4, -4, -1, 6
1491505143797,-6, -17, -4, 0, -3, -1, -1, 6
1491505143812,0, -1, 0, -1, -2, 0, -5, -7
1491505143819,1, -8, 2, -2, 0, 0, -2, -9
1491505143827,1, 10, 3, -2, -2, 2, 2, -7
1491505143841,-2, -5, -6, -1, 1, 0, -5, -6
1491505143844,2, 6, 3, 0, 0, 1, 0, 7
1491505143849,0, -3, -11, -3, -1, 0, -1, -18
1491505143857,3, -12, -12, -7, 4, 3, 0, -38
1491505143872,2, -4, -3, -4, 2, 1, -2, 1
1491505143878,-3, 6, 13, 2, -1, -1, -1, 13
1491505143887,0, -2, -1, 1, 0, -3, 0, 5
1491505143901,-1, -4, -3, -1, -3, -2, -2, 3
1491505143909,-2, -16, -2, -2, 0, -1, 1, -1
1491505143916,1, 28, 5, -1, 1, 0, 1, -4
1491505143917,-4, -9, -3, -2, -3, 0, -1, -4
1491505143931,1, 13, 6, 1, -1, 0, 0, 0
1491505143938,-1, -16, -6, -2, -2, 1, 0, -3
1491505143939,1, 4, -1, -1, 0, -2, 1, 1
1491505143954,3, 16, 6, 2, -2, 1, 0, 2
1491505143960,-1, -13, -9, 0, -2, -3, -2, 0
1491505143961,0, 5, 3, 0, 0, 1, -2, -2
1491505143969,1, 26, 8, 2, 0, -2, -1, 6
1491505143983,1, 1, -1, 1, 0, 0, 0, -1
1491505143991,-2, -24, -10, -2, -2, 0, 1, 0
1491505143998,-1, -8, -5, -1, -2, -2, 3, 0
1491505144014,-1, -13, -3, -2, 1, -1, -2, -3
1491505144021,-2, -7, -5, -1, 0, -2, 1, -1
1491505144029,-2, -3, 3, 1, -1, 0, -2, 0
1491505144043,0, 12, 7, 0, -1, -3, -2, -6
1491505144052,-2, 0, 1, -1, -1, 0, -2, 2
1491505144058,-2, -8, -5, -1, 0, 0, -3, -7
1491505144074,-3, -10, -2, 0, -1, -3, -3, -2
1491505144081,-1, -3, -1, 0, -1, -1, -2, 5
1491505144089,-1, -11, 2, -1, -4, -3, -1, 1
1491505144104,-3, -8, -5, -3, 0, -2, 1, 4
1491505144111,1, 4, 5, 1, 1, 0, 1, -1
1491505144112,-1, -7, -7, -1, 1, 0, 1, -5
1491505144119,2, 20, 22, 2, 0, -1, -3, -3
1491505144134,2, 3, -4, -2, -1, 0, -3, -3
1491505144143,1, -2, -9, -3, 0, 1, -2, -2
1491505144149,-1, 4, -1, -2, -2, 1, -1, -8
1491505144164,1, 2, -3, -2, -2, -1, -1, 1
1491505144171,-2, -2, 0, 1, 0, -2, 1, 6
1491505144172,-3, -2, -5, -1, -2, -3, -3, 5
1491505144182,-4, -7, -6, -1, -2, -3, -2, -3
1491505144194,1, 8, -1, 0, 0, -1, -2, -1
1491505144202,2, -13, -11, -2, 1, 4, -1, -6
1491505144209,0, 6, 4, -2, 1, 0, 0, -1
1491505144225,-1, 10, 14, 3, -1, -2, -2, 4
1491505144231,0, 0, 1, 0, -2, -1, 0, 2
1491505144248,-2, -3, -8, -1, -3, -3, 0, 3
1491505144254,1, 6, 4, 1, -1, -2, -2, 0
1491505144267,-1, -9, -5, -2, 0, 0, 1, -2
1491505144269,-2, -4, -1, 0, -1, 1, -2, -7
1491505144284,-4, -7, -10, -1, -5, -3, 0, 19
1491505144291,1, 33, 37, 6, 0, -3, 1, 13
1491505144292,-4, -13, -8, -2, 1, -1, 2, 4
1491505144299,-2, -3, -1, -2, -3, -1, -2, -10
1491505144314,0, 6, 5, 1, 0, 0, -4, -4
1491505144322,2, -10, -4, -2, 1, 0, 1, -6
1491505144329,-3, 0, 0, -4, 0, -1, -2, -5
1491505144346,0, 8, 7, 3, 1, -1, 1, 4
1491505144352,-1, -1, 1, 3, -2, -3, 2, 1
1491505144360,0, 3, 3, -1, 1, 0, 0, -11
1491505144374,4, 0, -3, -3, 1, 4, 0, -13
1491505144384,2, 17, 19, 2, 2, 3, 0, -5
1491505144389,-2, -6, -8, -1, -1, -1, -1, 7
1491505144390,-1, -8, -2, -1, -1, 1, -1, 5
1491505144405,-1, -8, -10, -4, -2, 0, -1, -2
1491505144411,-2, 14, 0, 0, -2, -1, 0, 4
1491505144420,-1, -1, -3, -1, -1, -2, 0, 6
1491505144434,0, -12, -8, -3, -3, 0, -1, -6
1491505144442,0, -1, -9, -1, -1, 0, 0, -2
1491505144449,-4, -8, -8, -2, -2, -3, -3, 5
1491505144465,-5, -7, -5, -2, -1, 0, -3, -1
1491505144473,-1, -9, -4, 1, -1, -2, -1, -5
1491505144480,1, -3, -1, -2, -2, -1, -2, -7
1491505144494,0, 3, 5, 0, 0, -1, -1, 7
1491505144502,-1, 7, 4, 0, -1, -2, -1, 3
1491505144509,-2, 4, -1, -1, -2, -1, 1, 1
1491505144525,-1, -3, -5, 0, -2, -2, 2, 3
1491505144532,-1, -2, 0, 0, -1, -1, 0, -2
1491505144546,-1, 6, 4, 1, -2, 0, -2, 0
1491505144554,2, 16, 19, 1, 1, 2, 1, -1
1491505144562,1, 15, 0, -1, -1, 1, -1, -1
1491505144569,-1, -2, -6, -2, 0, 0, -2, -4
1491505144584,0, -11, -1, -1, 0, 0, 0, 2
1491505144591,-1, 2, -2, 1, 1, -3, -1, -2
1491505144607,0, -6, -2, -1, 0, -1, -1, -4
1491505144614,-1, -11, -3, -1, 0, -1, -1, -3
1491505144623,-2, 0, -1, 0, -1, 0, -1, 0
1491505144629,-1, 4, 3, -1, 0, -1, 2, 1
1491505144645,-1, -4, -2, -2, 0, -2, 0, -2
1491505144652,-1, -8, -8, -1, -1, -1, 0, -1
1491505144666,-4, -13, -1, -1, -2, -2, -3, -3
1491505144674,0, -3, -3, -3, -2, 1, -3, -6
1491505144684,-1, 2, 1, -1, -1, 0, 0, 0
1491505144689,-1, 2, 1, 2, -1, 1, 0, 2
1491505144705,0, -15, -6, -3, 1, -2, -1, -1
1491505144711,1, -1, -1, -1, 0, 0, 1, 1
1491505144726,1, 24, 23, 3, 1, -1, -1, 0
1491505144734,1, 9, 0, -2, -1, -1, -1, -2
1491505144742,0, -4, -6, -3, -3, 0, -2, -1
1491505144749,1, -8, 2, -1, 0, 0, -2, 2
1491505144765,-1, -1, -5, -2, 0, -1, -3, -3
1491505144771,-3, -23, -12, -3, -1, -4, -1, -1
1491505144787,-2, -12, -7, -3, -1, 0, -1, -4
1491505144794,0, -8, -2, 0, -1, -1, 0, -1
1491505144802,1, 11, 4, 1, -1, 0, 0, -3
1491505144809,1, 9, 3, -1, -1, -1, 0, -1
1491505144824,0, -1, -4, -4, -1, -1, -1, -1
1491505144831,1, 8, 1, 0, 0, 1, 2, 0
1491505144847,0, -8, -2, -1, 0, 1, 0, -2
1491505144854,-4, -13, -7, -2, -2, -1, -2, -3
1491505144862,-4, -2, -2, 0, 1, 0, -1, -1
1491505144876,-1, 6, 4, 1, -1, -2, -3, -3
1491505144884,-1, -1, -7, -3, 0, -3, 0, -1
1491505144892,1, 0, -2, -1, 1, -2, -1, 2
1491505144906,-3, -1, -5, -1, -3, -2, -2, 0
1491505144914,-1, 2, 4, 0, -1, -1, -2, -6
1491505144923,-1, -6, 0, -1, -1, 1, -1, 0
1491505144937,3, 53, 15, 1, -2, 0, 0, 3
1491505144945,-2, -2, -2, 1, -1, 1, -1, -2
1491505144951,0, 2, 14, 1, 1, 0, 0, -1
1491505144966,-1, 11, 4, 0, 0, -1, 2, 0
1491505144974,-2, -12, -9, -1, 1, -2, -2, 1
1491505144983,-2, -6, 0, -1, -1, -2, -3, -4
1491505144996,-1, -3, -1, -1, 0, 0, 4, 1
1491505145005,1, 5, -3, 1, 1, 0, -2, -2
1491505145011,-2, -3, -4, -3, -3, -1, -2, -6
1491505145027,0, -9, -10, 0, -2, 0, 1, 2
1491505145034,-3, -27, -11, -3, -2, -1, -2, -1
1491505145042,2, -4, 1, -1, 1, -2, -1, -4
1491505145056,-1, -13, -9, -2, -2, -2, -2, -4
1491505145065,-1, 6, 2, 0, 1, 0, -1, 1
1491505145071,-1, -8, -6, 0, 1, -2, -1, 0
1491505145072,0, 6, 1, 1, -1, -2, 1, 0
1491505145086,0, 7, 8, 1, -1, -1, -1, -1
1491505145094,0, -1, -3, 0, 1, 0, -5, -5
1491505145103,0, -3, -1, -2, -1, -1, -2, -8
1491505145116,4, 8, 14, -1, 1, 1, 0, -6
1491505145125,-1, -5, 3, 1, -1, -1, 1, 2
1491505145131,-6, -10, -6, 1, -5, -3, 0, 13
1491505145146,-5, 7, 2, 0, -2, -3, 0, 12
1491505145154,-3, 1, -3, 0, -3, -1, -2, -2
1491505145162,-2, -7, -5, -4, -2, -2, -2, -5
1491505145176,-6, 3, 1, 2, -2, -5, -2, 30
1491505145185,7, 29, 15, -2, 1, 3, -1, -27
1491505145191,5, -5, -4, -3, 2, 5, -2, -19
1491505145206,-1, -12, -7, -1, -2, 0, 0, 5
1491505145215,-1, -5, -7, -2, 0, 0, 2, 1
1491505145222,-1, -2, -3, -1, -1, -4, -4, 2
1491505145237,-1, -5, -4, -2, -1, -3, -1, -2
1491505145245,-3, 3, 1, -1, -2, 0, 1, 0
1491505145246,-2, -12, -3, -1, 0, -1, -1, 1
1491505145251,-1, 4, 0, 0, -1, -1, 0, -5
1491505145267,-1, -1, -2, 1, -2, 0, 1, 3
1491505145274,0, 4, 2, 0, -1, 0, -1, -9
1491505145282,-3, -6, -11, -2, -2, -1, -1, 3
1491505145296,-2, -1, -2, -2, 0, -1, 0, -3
1491505145305,-1, -1, -4, -2, 0, 2, 1, 1
1491505145311,0, 8, 7, 0, 0, 1, 0, -4
1491505145326,-2, 1, 2, -1, -2, -2, -3, -1
1491505145334,1, 13, 2, 0, 0, -1, -1, -2
1491505145344,0, 2, 2, 0, 1, -1, -3, -2
1491505145356,-2, -7, -3, -3, -1, 0, -1, -1
1491505145364,0, -2, -1, 1, -1, 0, 1, -3
1491505145371,-2, -18, -11, -3, -1, -2, 1, -3
1491505145386,-3, -3, 0, -1, 0, -1, -4, -5
1491505145395,-2, -4, -3, 0, -1, 1, 0, -2
1491505145402,0, 0, -2, -1, 0, -3, -1, 1
1491505145416,-1, -3, 0, -2, 2, -2, -2, 0
1491505145425,-2, -3, 1, -1, -1, 2, -1, -3
1491505145431,2, 1, 0, -1, -2, 0, 0, -3
1491505145446,0, -5, -9, -1, -1, -2, 0, 1
1491505145454,-2, -7, -7, -1, 0, -1, -2, -1
1491505145463,-2, -6, -2, -1, 0, 0, -1, 0
1491505145476,-1, 7, 4, 1, 1, -1, -1, -1
1491505145485,1, 3, 2, -3, 0, -1, 0, -1
1491505145491,-1, 2, -1, 1, -1, -1, 0, 1
1491505145507,0, 1, 2, -1, -3, -1, -1, -1
1491505145514,-2, 0, 5, 0, -3, 0, -1, -2
1491505145531,0, 7, 2, 0, 0, -1, -1, -1
1491505145536,-2, -21, -13, -3, -2, -1, 0, -3
1491505145545,0, 3, 0, -1, 0, 0, -1, -4
1491505145551,1, 7, 5, 0, 0, -2, -1, -1
1491505145567,0, -9, -2, 0, -2, -1, 0, 0
1491505145574,3, 2, -2, -1, -1, -2, 0, -3
1491505145582,-3, -16, -8, -2, 0, -3, -1, -2
1491505145583,-1, 8, 1, -1, 0, -1, -2, -2
1491505145596,-3, -2, 0, -1, -2, -1, 1, 1
1491505145606,2, -2, 2, 1, 1, 0, -1, 0
1491505145611,1, 0, -4, 0, -1, 0, -2, 0
1491505145628,1, 29, 1, 2, 0, -1, 0, 1
1491505145634,0, 9, 0, -1, 0, -1, -1, 0
1491505145643,0, -7, 0, -2, -2, -2, -2, -1
1491505145657,-1, -1, -3, -2, -1, -1, -4, 0
1491505145665,-3, -1, 3, 0, -1, 0, 1, -1
1491505145671,-2, -9, -2, -2, -1, -1, 0, -1
1491505145687,-1, -2, -6, -1, 0, -2, -2, -1
1491505145688,0, 1, 6, 1, 0, -1, -1, 0
1491505145694,-1, 2, 2, 1, -2, -1, 0, -2
1491505145703,0, -11, -4, -2, -2, 0, -1, 0
1491505145716,2, 25, 9, 0, -1, -1, -3, 0
1491505145725,-1, -8, -6, -4, -1, -1, -3, -2
1491505145731,-2, -10, -2, -1, -1, 0, -1, 0
1491505145748,0, -1, -3, -1, -2, 0, -1, 1
1491505145754,0, -4, -1, -2, 0, -1, 0, 1
1491505145762,-3, -6, -5, 0, -1, -2, -2, -3
1491505145776,-3, -6, -2, -1, -2, -3, 0, -2
1491505145786,0, -1, 1, 0, -1, -2, 1, -3
1491505145791,-1, 2, 3, 0, 1, 1, -2, 0
1491505145807,-2, -6, -9, -3, -1, 0, 1, -2
1491505145816,0, -3, -4, 0, -2, -1, 0, -1
1491505145829,-3, -16, -3, 0, -1, 0, -3, -1
1491505145836,-2, -9, -3, -2, -1, 1, -3, -5
1491505145844,-2, -6, -5, 0, -2, 0, 0, -1
1491505145859,-1, -1, 0, 1, 0, -1, 0, 0
1491505145867,-2, 2, 2, 0, 0, 0, 0, -2
1491505145874,1, 8, 2, -1, -1, -2, -1, 0
1491505145889,2, 7, 2, 1, 0, -1, -1, 1
1491505145896,0, -2, 10, -1, 1, -1, -1, -4
1491505145904,-1, -6, -5, -2, -1, 1, 0, 0
1491505145919,-1, -4, -4, -1, -1, -1, 1, 1
1491505145927,3, 17, 8, 1, 1, 0, 1, 1
1491505145934,-2, -7, -4, -2, 0, -1, -3, -3
1491505145949,-2, -9, -7, -1, 0, -2, -2, 0
1491505145956,0, 8, 3, 0, 0, 0, -1, 0
1491505145965,0, 4, 1, -1, -3, 0, -1, 0
1491505145979,-1, 0, -5, -1, -1, -4, 1, 1
1491505145987,1, 0, -2, 0, -1, -3, -3, -5
1491505145994,-3, -13, -13, -4, -1, 1, -2, -1
1491505146009,-2, -4, 1, 0, -1, 0, 0, -1
1491505146016,1, 11, 4, 2, -1, 1, -3, -4
1491505146030,2, -2, 3, -2, 0, 1, -2, -2
1491505146039,0, -4, 0, -2, -1, 0, 0, 1
1491505146047,-1, -1, -4, -1, -2, -2, -1, 0
1491505146054,-1, -1, 0, 0, -1, -1, 0, 0
1491505146069,0, -6, -4, -2, -2, 0, -1, -1
1491505146076,-3, 0, -6, -1, -1, -1, -2, -6
1491505146084,0, 5, 3, -2, 1, 0, -1, -4
1491505146099,0, -2, -2, 1, 0, 1, 2, 1
1491505146109,-4, -7, -6, -1, -3, -2, -3, -2
1491505146114,-2, -4, 0, -2, -1, -2, -1, -6
1491505146129,-1, -14, -2, -2, 1, 0, -1, -2
1491505146136,0, 0, 0, 0, 0, 0, 0, -2
1491505146145,0, 7, 0, -1, -2, -3, -1, 1
1491505146173,-1, -1, -5, -2, -1, 0, -1, 0
1491505146176,2, -4, -6, -2, -2, -2, -1, -2
1491505146189,1, 6, 3, 1, -1, 1, 1, -2
1491505146196,-2, 2, 4, -1, 0, 0, 0, -2
1491505146204,0, 1, 0, 1, 1, -1, -3, 0
1491505146219,0, 0, 1, 1, 1, 0, -1, 0
1491505146227,-1, 0, -3, 0, 0, -2, -4, -3
1491505146234,-1, 1, -1, 0, 0, 0, 0, -1
1491505146249,1, 14, 3, 2, 0, -1, 2, -2
1491505146256,0, -3, -5, -1, 0, 0, 1, -3
1491505146264,0, -11, -5, -1, -3, 0, -1, 1
1491505146279,-3, -8, -7, -2, 0, 0, -2, 2
1491505146287,-1, -2, 0, -2, -2, 0, -1, 1
1491505146294,-1, -1, 3, -1, -2, 0, -3, 0
1491505146309,-3, 1, 1, -1, -2, -1, 0, -6
1491505146317,-2, 0, 1, -1, -2, -3, -2, -2
1491505146325,0, -1, -2, -3, -4, 1, -1, 0
1491505146339,1, -3, -1, 1, -1, 1, -2, -1
1491505146347,0, 8, 13, 2, 1, -2, -2, -1
1491505146354,0, 7, 3, 0, 1, 0, 1, -1
1491505146369,-1, -7, -7, -2, -2, 0, -1, 0
1491505146376,1, 0, 2, -2, -2, 0, -1, -1
1491505146384,-2, -1, -2, -1, 0, -1, -1, -3
1491505146399,-1, 1, -2, 0, -1, -1, -1, -1
1491505146407,0, 1, -3, 0, 1, -1, -1, -1
1491505146414,-1, -4, -2, 0, 1, -2, -2, -2
1491505146429,-1, -3, -3, -3, 0, 2, -2, -2
1491505146436,-1, -1, -1, -2, -1, -1, -1, -1
1491505146448,-1, -5, -9, 0, 1, 0, 0, 0
1491505146459,1, 16, 6, 0, -1, 0, -2, -2
1491505146474,2, 3, 0, -1, -2, -1, 1, 1
1491505146475,-4, -5, -1, -1, -1, -2, -2, 0
1491505146489,0, -1, -1, -1, -2, -1, -1, -3
1491505146496,0, -4, -2, -1, 0, 0, 0, 0
1491505146505,-1, 0, 1, 1, -2, -1, -2, -3
1491505146519,-1, -1, -4, -2, -2, -1, 0, -3
1491505146529,-1, 0, 0, -1, 1, -2, 1, -1
1491505146534,0, -7, -3, 0, 0, -1, 1, -1
1491505146549,1, 29, 12, 2, -1, -1, -2, 1
1491505146556,-3, -9, -8, -1, 0, -1, 1, 1
1491505146564,-4, -14, -7, -2, 0, -1, -2, -2
1491505146580,0, 2, -1, 0, -1, 0, 1, 0
1491505146587,-1, -5, -3, -1, -1, 0, 2, -2
1491505146594,-1, -4, -2, -2, 0, 0, -2, -3
1491505146609,0, -3, 0, -2, -1, -2, -1, -3
1491505146616,0, 2, 3, 1, -1, -2, -1, -2
1491505146625,-1, -4, -1, -1, 0, 1, -2, -1
1491505146639,1, -3, 1, 1, -1, 1, 1, 0
1491505146647,-1, 24, 3, -2, -1, -1, 0, 3
1491505146655,-2, 2, 1, 0, -1, -1, -2, -3
1491505146669,0, -12, -5, -2, -1, -2, -3, 1
1491505146676,2, 15, 3, 0, 1, -1, 1, -1
1491505146684,-2, -11, -5, 1, 0, 0, 1, 2
1491505146699,-1, -10, -7, -2, 0, -1, -2, -2
1491505146707,-1, -11, -5, -3, -1, -1, -1, -1
1491505146714,-1, -6, -8, -3, -1, 0, -3, -2
1491505146729,-2, -4, -5, -1, -2, 0, 0, 0
1491505146737,1, 30, 7, 0, -2, -2, -1, 0
1491505146751,-1, -11, -8, -3, -1, -2, -1, -4
1491505146752,0, -3, 1, 2, 0, -1, 1, -1
1491505146759,-2, -6, -1, 0, -2, -1, -3, -1
1491505146767,-1, 2, 2, -3, -1, -1, -1, -2
1491505146781,1, 21, 7, 2, 0, -1, -2, 0
1491505146789,-1, -14, -11, -1, -3, 1, -1, -4
1491505146796,0, -16, -2, -2, -2, -2, 0, -1
1491505146812,1, 29, 6, 1, -1, -3, -1, -1
1491505146821,-2, -8, 5, -1, -1, -1, -1, 3
1491505146827,0, -8, 0, -1, 0, -1, 0, 0
1491505146841,-2, -2, -3, 1, 2, 1, -1, -7
1491505146849,0, -5, 4, -1, 0, -1, -1, -1
1491505146856,-1, -15, -7, -1, -1, 1, -1, 0
1491505146873,-4, -7, -2, -3, 0, 0, 0, 0
1491505146879,-3, -11, -5, -3, -1, -1, -2, -3
1491505146887,0, -3, -5, -1, 0, -1, 0, -1
1491505146901,-5, -18, -5, -2, -1, -1, -2, -3
1491505146909,0, -3, -2, -1, -2, 0, 0, -2
1491505146917,1, -6, 0, 1, -2, -1, -2, 0
1491505146931,-2, -2, 2, -1, -1, 0, -4, -7
1491505146939,1, 1, -4, -2, -1, -1, 1, 0
1491505146947,-2, -4, -3, 0, -1, -1, 0, 1
1491505146961,0, 6, 1, -1, 0, -1, 1, -1
1491505146969,1, 3, 2, -1, 0, -1, 1, -1
1491505146976,3, -3, 1, -1, -1, 0, 0, 2
1491505146991,0, -1, -5, -1, -1, -1, 2, 0
1491505146999,0, 13, -1, -2, -2, -1, -1, -2
1491505147007,1, 3, 2, 0, -1, 1, -3, -1
1491505147021,-3, -8, -1, -1, -1, -1, -1, -7
1491505147029,0, 3, 0, -1, -1, -1, 0, -2
1491505147036,2, 3, 0, 0, -3, -1, -1, -1
1491505147051,-1, -10, -8, -1, 0, -1, 0, 0
1491505147059,0, -2, -4, 0, -3, -1, 0, 2
1491505147067,-4, -11, -4, -1, -2, -1, -2, -1
1491505147082,-3, -1, -4, -1, -2, -1, 0, -1
1491505147089,-2, -3, -2, -1, -1, -3, -2, -2
1491505147097,-2, 1, 2, 0, 0, -1, -1, -1
1491505147111,2, 0, 1, 1, -1, 0, 0, 1
1491505147119,2, 16, 8, -2, 1, -1, 0, -2
1491505147127,4, 12, 2, 1, 0, 0, 1, 2
1491505147141,-2, -5, 1, -1, -1, 1, 0, 1
1491505147149,-1, -1, 1, -2, -1, 0, -1, -2
1491505147157,1, 7, 0, 1, 1, -1, -1, -2
1491505147171,0, -2, -1, -1, -1, -1, -1, -1
1491505147172,-1, -11, -4, -1, -2, -1, -2, -6
1491505147179,-1, -19, -5, 1, 1, 0, 3, 0
1491505147187,-1, 4, 2, -1, 2, -2, -2, 1
1491505147201,-2, 2, 0, 0, -1, -1, -1, -2
1491505147209,0, -10, 0, 0, -2, 1, 0, -2
1491505147216,-1, -6, -1, 0, 0, 0, -1, -1
1491505147217,0, 5, -8, -1, -2, -1, -3, -2
1491505147231,2, 0, 1, -1, 0, 0, -1, -1
1491505147232,-3, -3, -7, -2, -1, 0, -2, -4
1491505147239,-2, 8, 7, 0, -2, 0, 0, -1
1491505147247,0, 15, 6, 0, 0, -1, 1, 0
1491505147261,-1, -7, -2, -2, -1, -1, 1, 0
1491505147269,-1, -14, -2, -1, -1, 0, 1, -1
1491505147276,-2, -9, -3, 0, -2, -1, -1, -1
1491505147292,-1, -9, -7, -2, -4, -1, -3, -1
1491505147299,0, -1, -1, -1, 1, -1, -3, 1
1491505147307,-1, 3, 2, -1, -2, 1, -1, 0
1491505147321,-1, 0, 0, -1, -1, -1, -2, -3
1491505147329,0, 0, -2, -2, -1, -2, -1, -1
1491505147337,-1, -6, -4, 0, 0, -1, 1, -3
1491505147338,1, -5, 1, -1, 1, -2, -2, -4
1491505147351,-3, 0, 1, 0, 2, 1, -1, -1
1491505147359,-3, -7, -2, 0, 0, 0, -1, -1
1491505147368,0, 22, 8, 3, -1, -2, 1, 2
1491505147382,-2, -4, -12, -4, -2, 0, 0, -4
1491505147389,2, -7, -4, -3, -1, -1, -1, -3
1491505147396,0, -8, -5, -3, -2, 0, -3, -3
1491505147412,0, -3, -2, -2, -1, 1, 3, 0
1491505147419,0, 9, 2, 2, -3, -2, 1, 2
1491505147427,-1, 7, 6, 1, -1, -2, -2, -2
1491505147441,0, 5, 2, -1, 0, 0, -2, -2
1491505147451,-1, -3, -1, 0, -1, -1, 2, -1
1491505147456,-5, -15, -2, -3, 0, -1, -3, -5
1491505147471,-3, -10, -5, 0, 0, 0, -1, -1
1491505147479,-1, -4, -6, -3, -2, 0, 1, 2
