timestamp,1,2,3,4,5,6,7,8
1491432367450,-3, -2, -4, 1, -4, 0, 1, -1
1491432367464,1, -1, 0, 0, 0, -1, -1, 2
1491432367472,-3, -3, -2, -1, 0, -3, -2, 2
1491432367480,-1, 1, -4, -1, 2, -7, 1, -2
1491432367493,-2, -4, -2, -2, -1, -1, -4, -1
1491432367502,-1, -4, 0, -2, -1, -1, -2, -3
1491432367509,0, -1, 1, 0, 1, -3, -1, -2
1491432367524,-3, 0, -1, -2, -3, 1, -2, -4
1491432367532,0, -2, -1, -1, 0, 1, -2, -3
1491432367539,2, 0, 5, 2, -1, 0, 0, 0
1491432367553,1, -3, 0, -1, 0, -3, -2, -2
1491432367561,-1, -5, -3, 1, -1, -3, 1, 5
1491432367569,-2, 0, 0, -1, -3, 0, 2, 4
1491432367584,-1, -3, -2, -1, -2, 2, -2, 3
1491432367591,1, 5, -1, 0, -1, -2, 0, 2
1491432367600,-2, -2, -4, 0, -2, 0, -3, -5
1491432367613,0, 2, -1, 0, -1, -1, 0, -2
1491432367622,-1, 0, 1, -3, 0, 1, -1, 0
1491432367629,-3, -4, 0, -2, -2, -1, -1, -1
1491432367644,-1, -2, -4, 0, -3, -2, -2, -1
1491432367652,2, -1, 0, 0, -4, -2, 0, -1
1491432367660,-1, 4, 0, 0, 4, -4, 1, 2
1491432367674,-3, -2, 0, -2, -2, 1, 0, 0
1491432367682,0, -3, -1, 0, 0, 2, -1, -3
1491432367689,0, -4, -1, 0, 0, 2, -4, -7
1491432367704,-2, 0, 1, 0, 3, 1, 1, -2
1491432367711,-1, 0, -3, -3, 0, -1, 1, 3
1491432367719,0, -2, -5, -1, -3, -2, 0, -1
1491432367733,-2, -3, -1, -2, -2, 0, 0, -1
1491432367742,-1, 4, -1, -1, -1, -5, -4, -3
1491432367749,-3, -2, -3, -1, -1, -1, -2, -3
1491432367764,0, 0, -1, -1, 0, 0, -2, -1
1491432367771,-1, -3, -1, 2, -3, 0, -1, -2
1491432367779,-1, -3, -3, -2, -3, -2, 0, -1
1491432367793,-2, -4, -4, -3, 0, 2, -2, -4
1491432367802,-1, -4, -2, 0, 0, 1, 0, 0
1491432367809,1, -4, -2, -1, -1, -3, 1, -2
1491432367824,-2, -1, -5, -3, 0, -1, 1, 1
1491432367832,3, 2, 0, -1, -1, 0, -1, 0
1491432367842,-3, -2, 0, 0, 0, 0, -1, 0
1491432367855,-2, -3, -2, -1, 0, -1, 3, -1
1491432367861,-1, -4, 3, 1, 0, -2, 0, -1
1491432367871,-1, 0, -3, 0, -2, -1, 0, 1
1491432367888,0, -3, -1, -3, 0, -2, -1, 0
1491432367892,-2, -2, 1, 1, 0, -3, -2, -1
1491432367899,1, 0, -2, -1, -1, -1, -2, -2
1491432367913,-1, 4, 0, 0, -4, 0, -2, -1
1491432367921,-3, -1, -2, 1, -2, -2, 0, 0
1491432367922,1, -3, 0, -2, -2, 0, -1, 1
1491432367929,0, 2, 0, 1, 0, -1, 0, -1
1491432367944,1, 2, -1, -2, -3, 0, 3, 0
1491432367951,-1, -1, 5, 1, -1, 2, 1, 4
1491432367960,-2, 1, 0, 1, -1, -1, 1, 0
1491432367974,0, -3, -1, -2, 1, 1, -1, 1
1491432367982,-2, -6, -1, -1, 1, 0, 0, -3
1491432367989,-1, 4, 1, -2, -2, -1, -1, 0
1491432368004,1, -5, -4, 1, -1, -3, -3, -2
1491432368011,-3, 0, -2, -3, -4, -3, -2, -3
1491432368012,0, -6, -4, -3, 1, -6, -2, -2
1491432368019,1, 1, 1, -1, 0, 1, 2, 0
1491432368033,0, -9, -2, -1, 2, 1, -1, 0
1491432368041,-1, 6, -1, 2, 0, 0, -1, -1
1491432368042,0, 0, -2, 0, -4, -1, -1, 1
1491432368049,-1, -8, -2, 0, -4, -2, -1, -4
1491432368071,3, 0, -3, 1, -4, -1, 0, 0
1491432368072,0, 1, -2, -2, 1, -3, 0, -4
1491432368079,-4, -1, -1, -2, -1, -2, -2, -6
1491432368094,-4, -1, -1, 0, 0, -2, 0, -2
1491432368102,-2, 5, 2, -1, 0, 1, -1, 0
1491432368116,0, -4, -3, -3, 0, -4, 2, -1
1491432368124,-2, 0, 3, -1, 0, 0, 1, 1
1491432368132,1, 3, -2, 0, 0, 4, -1, -1
1491432368146,0, -3, -1, 0, 3, 1, -1, 1
1491432368147,2, -5, -3, 0, 0, -3, 1, 0
1491432368153,-2, 2, 1, 2, -3, 2, -2, 1
1491432368161,-1, 2, -1, 1, -2, 1, -1, -1
1491432368177,-1, -7, -2, -1, 0, 2, -2, 1
1491432368178,0, 1, -3, -3, -1, -2, -2, 2
1491432368184,1, -2, -1, -2, -1, -1, -2, -2
1491432368192,-1, 6, 1, 1, -2, -3, 0, -1
1491432368206,0, -5, -3, -2, -2, 2, 1, -1
1491432368213,-1, -5, -1, 1, -1, -2, 0, 0
1491432368221,-1, -6, 1, 1, 1, 1, -3, -1
1491432368236,-2, -4, -2, 0, -1, 1, 1, -1
1491432368244,0, -4, -3, -1, 0, -5, -2, -3
1491432368251,-6, -3, -4, -1, 2, 0, -7, -7
1491432368267,-3, -4, -2, -3, -1, 0, 0, 0
1491432368273,0, -2, -5, -1, -2, -1, 0, 1
1491432368281,3, 5, 1, -1, -2, 0, 2, 1
1491432368296,-1, -4, -1, -2, -1, -1, -3, -1
1491432368304,0, 1, -1, 0, 1, -2, -2, -1
1491432368311,-3, 0, -2, -1, 2, 0, 0, -3
1491432368312,1, 2, -2, 0, -2, 1, -3, -1
1491432368326,0, -1, -5, -1, 1, -1, 1, 3
1491432368333,-3, 2, 0, -2, 1, 0, 1, 1
1491432368341,-2, -3, 2, 0, -3, 2, -3, 0
1491432368342,0, -5, -2, 1, -1, 1, -2, -2
1491432368356,-1, -3, -3, -1, -3, -4, 1, 1
1491432368364,1, -1, 2, -1, -3, -4, -1, 1
1491432368378,0, -2, 0, 0, -3, 0, -1, 0
1491432368388,-1, -4, -3, 2, 1, 0, 0, -2
1491432368401,1, 0, 1, -2, 1, -1, 0, 0
1491432368402,1, -4, -2, -2, 0, -4, 0, 0
1491432368403,-3, -2, -1, -3, 0, -4, 0, -4
1491432368416,2, 7, 1, 0, -5, 1, 0, 1
1491432368424,-4, -1, 3, 0, -1, 1, -1, 1
1491432368432,-2, -4, -1, -2, 2, -2, -3, -3
1491432368446,-1, -3, 0, -2, 1, -5, -3, -5
1491432368447,-4, 2, -1, 0, -1, -5, -2, -3
1491432368454,0, -3, -3, 0, -2, -1, -1, -1
1491432368462,-2, -3, -3, 1, -2, 0, -4, 0
1491432368476,-3, -2, -1, 0, -1, 0, 1, -1
1491432368484,-3, -3, -3, 0, -1, 1, -3, -1
1491432368492,-1, -1, 0, -1, -1, -2, 0, 1
1491432368506,-1, -2, 0, 1, -1, 0, 1, 0
1491432368507,1, 0, 2, -2, -2, -2, -1, -1
1491432368514,-2, -2, 0, -3, 1, 0, 0, -3
1491432368521,-3, -6, -1, -2, -1, 4, -1, 0
1491432368522,-2, 0, -2, -1, -5, 0, -2, -3
1491432368536,0, -2, -2, 0, -3, -2, -1, 2
1491432368545,1, -2, -2, -1, 3, 1, 0, 0
1491432368551,-1, -8, -2, 0, 0, -1, 1, -1
1491432368566,-1, -1, -1, -2, -1, 0, 0, 3
1491432368573,2, 3, 1, 1, -1, -2, -1, 0
1491432368581,1, -4, -1, -3, -2, -1, 0, -1
1491432368597,-3, 0, 0, 0, -4, 1, -2, -6
1491432368604,-1, 3, 0, 0, 1, -1, -4, -2
1491432368611,-2, 0, 0, -3, 3, -1, -3, -1
1491432368627,-2, -6, -4, 0, 2, -1, 1, -3
1491432368633,-2, -3, 0, -1, -2, -1, -2, -2
1491432368642,-1, -4, 1, 0, -2, -3, -1, -1
1491432368656,-1, 2, 0, -2, 0, -1, 1, -1
1491432368664,3, 9, 4, 1, -1, -1, 1, 2
1491432368671,-2, -2, -5, -2, -2, 2, -2, 0
1491432368672,-3, -7, -2, 0, -1, 4, -1, 0
1491432368694,0, -2, -1, 1, -1, -1, 0, -1
1491432368701,1, -2, -1, -1, 1, 1, 2, 0
1491432368716,0, -3, -3, -1, -1, -1, 0, -1
1491432368724,-2, -1, -2, -1, -2, -2, -3, -1
1491432368731,-3, -3, -2, 1, -2, 0, -3, 0
1491432368732,1, -1, 0, -1, 2, -1, -1, 2
1491432368746,0, -6, -2, -1, -2, -2, 1, 0
1491432368754,-2, -4, -1, -2, 1, 0, -2, -3
1491432368761,0, -2, -1, 0, 2, 1, 0, -1
1491432368776,-2, -1, -1, -1, -4, 0, -1, 0
1491432368784,0, -4, 0, 0, -1, 0, -3, 0
1491432368791,-1, -3, -3, -1, -1, 2, -1, -1
1491432368806,-1, -1, 1, -1, -2, -3, -1, 1
1491432368813,-1, -4, -1, -1, -2, -2, -1, -2
1491432368821,-3, -6, -4, 0, -2, -2, -1, -1
1491432368836,1, 0, 0, 1, -2, 0, -1, 0
1491432368846,-6, -3, -2, -2, -2, -2, -2, -2
1491432368854,-1, 1, -1, -1, -2, 1, -1, 0
1491432368868,0, 1, -1, -2, -2, 0, 0, -2
1491432368873,-1, 0, 1, 0, 2, -5, 1, 2
1491432368882,-1, 1, 0, -1, 1, 3, 0, -1
1491432368896,0, 5, 2, 1, -2, -3, -2, -2
1491432368904,3, 0, 1, 1, 1, -2, -1, 1
1491432368913,1, 1, 0, -4, -2, -1, -1, 0
1491432368926,-2, -4, -1, -1, -3, -2, -1, -3
1491432368927,-1, 2, -1, 2, 0, -2, -1, -2
1491432368933,-2, -2, -1, -2, -4, -1, -1, 0
1491432368941,-1, -4, -5, -2, 1, -1, -2, -4
1491432368956,-3, 1, 0, -1, 3, -2, -2, -4
1491432368964,-3, -1, 0, -2, -4, 1, 0, -2
1491432368971,0, -7, -1, 0, 0, 4, -1, -1
1491432368986,-2, -1, -1, -2, 2, -1, 0, -1
1491432368994,-4, -2, -4, -1, 0, -2, 0, -3
1491432369001,-3, -3, 3, 0, -2, -3, -3, 1
1491432369016,-3, -3, -4, 0, -2, -3, -3, 2
1491432369017,3, 5, -3, 0, 0, -3, 2, 2
1491432369024,2, -1, -1, 0, -2, 0, -1, -3
1491432369031,-2, 0, 0, -1, -1, 0, -3, 2
1491432369048,0, 1, 5, 0, 0, 3, -2, 0
1491432369053,0, -2, -4, 1, 1, 2, 1, 0
1491432369069,-1, -2, -6, -1, -1, -2, 0, -1
1491432369075,1, -2, 1, 0, 1, 1, 0, -3
1491432369076,1, -5, 0, 1, -1, -3, -2, -2
1491432369084,-2, -1, -3, -2, -2, -1, 1, -2
1491432369099,-1, -2, -1, -2, 0, -1, -1, -3
1491432369106,0, -5, 1, -1, 2, -2, -1, 0
1491432369107,1, 0, -5, -1, 2, 0, 0, 1
1491432369114,-1, -1, -1, -1, -2, 3, -2, -3
1491432369129,-1, -4, 1, -1, 0, 1, 0, 3
1491432369136,0, -2, 3, 0, 2, -3, 0, 2
1491432369144,-1, 5, 0, 2, -2, -3, -1, -2
1491432369158,0, 1, 0, -2, -4, -1, 2, -2
1491432369166,-1, -2, 0, -4, -1, -3, -2, 1
1491432369174,-3, -2, -3, -2, 3, -1, -1, -1
1491432369189,0, -6, 2, -1, 0, -1, -1, -3
1491432369195,-4, -3, -4, -1, -1, 1, -1, -1
1491432369204,-3, -2, 0, 0, 0, 3, 1, -3
1491432369218,-2, -1, -1, 0, -3, -2, -2, -3
1491432369226,1, -2, -2, -1, 0, -3, -1, -1
1491432369227,0, 5, -2, 0, 1, -3, -4, -1
1491432369234,-1, -3, -1, 0, -5, -3, 0, 0
1491432369249,-3, -2, -1, -1, -3, -1, -1, 0
1491432369256,0, -4, 2, 0, 1, -1, 0, 1
1491432369264,1, -2, -1, -1, 2, -3, -1, 0
1491432369278,0, 2, 2, 2, 0, 2, 0, -1
1491432369286,-1, -2, 0, -1, -2, -1, -1, -1
1491432369294,1, -1, 0, -1, -1, -2, -2, -2
1491432369309,0, 0, 1, -1, 0, -1, -2, 0
1491432369316,0, 0, -3, -1, -3, -2, 0, 1
1491432369324,-1, -3, -1, 0, 0, -1, 1, 0
1491432369338,2, 7, 1, -2, 0, 0, -1, 2
1491432369346,-2, -3, -2, 0, -1, 0, -3, -4
1491432369347,0, -1, -4, 1, -1, -2, -1, -2
1491432369354,-3, 1, -1, -2, -1, -3, -3, 0
1491432369369,-2, -3, 1, -1, -1, -1, -1, -2
1491432369376,-2, -5, -3, 0, -1, 2, 0, -2
1491432369385,-2, -4, -2, -3, 0, 0, -2, -2
1491432369398,-1, -5, 0, -1, 0, -4, -2, -2
1491432369406,-1, -2, -1, -1, -6, 0, 1, 0
1491432369414,1, -4, -4, -2, 1, 0, -2, -3
1491432369429,0, -3, -3, -3, 1, -1, -1, -1
1491432369436,-2, 0, 2, -1, 0, -1, 2, -1
1491432369444,0, -2, -4, -1, 0, -2, 0, -1
1491432369458,-2, -4, 1, -3, -2, 0, -2, 3
1491432369467,0, -3, -3, -1, 0, 3, -2, 0
1491432369474,-3, -1, -3, -3, -2, 1, -2, -4
1491432369489,1, 0, 0, 0, 1, -1, 0, -1
1491432369496,2, -3, -3, 1, -3, -2, 1, 0
1491432369504,3, 2, 0, 2, -4, 1, 1, -2
1491432369520,-3, 0, -2, -3, 2, -2, 0, -2
1491432369527,0, -7, 2, -3, 0, -1, -1, 0
1491432369534,-1, -3, -3, 1, 0, -1, -1, -1
1491432369549,-3, 1, -1, -1, -1, -3, -1, 2
1491432369556,0, -2, 1, 1, 0, -3, -2, -3
1491432369564,-1, -4, 2, 0, -3, -3, -2, -1
1491432369578,-3, 3, -1, -1, 0, 1, -1, -1
1491432369587,0, 4, -1, 0, -2, 2, -2, -1
1491432369595,1, 0, -1, 1, -2, 0, -2, -2
1491432369609,-2, -4, -3, -1, 1, 0, 0, -1
1491432369616,-1, -3, -3, -1, -1, -1, -1, -1
1491432369624,2, 0, 1, -1, 0, -2, 0, -1
1491432369641,-1, 3, 4, 0, -1, -3, 1, -1
1491432369647,-3, -2, -4, -1, 0, 0, 0, -1
1491432369654,-1, 0, -1, 0, -4, -3, -2, -1
1491432369655,-3, -3, 0, -3, -4, -3, -3, -3
1491432369669,1, 1, 0, 1, 3, 3, 0, 0
1491432369677,1, 1, 2, -3, 2, 2, -2, 3
1491432369684,-5, -4, -1, -3, 0, -2, -1, -1
1491432369698,-2, -5, -3, 1, -3, -2, 0, -2
1491432369706,-1, 0, -2, 0, -5, -3, 0, 1
1491432369707,0, -1, -4, -3, -2, -4, 0, -3
1491432369724,0, -5, -1, -2, 2, 1, 0, 2
1491432369729,-3, -1, -2, -1, -2, 0, -1, 2
1491432369737,0, -1, -1, -1, -2, 1, -2, -1
1491432369744,-2, -1, 2, -1, -3, 0, -1, -2
1491432369759,1, 4, 1, 4, -3, 1, 2, 1
1491432369766,0, 2, 6, 2, 1, -2, -1, 1
1491432369782,-1, -6, -5, -2, -1, 0, 0, -1
1491432369790,-1, -7, 0, -1, -3, -1, 0, 0
1491432369797,-2, -3, -3, -1, 1, -2, 0, -1
1491432369805,-4, -4, -1, 0, 1, 0, -2, -3
1491432369819,-1, 1, -3, -2, -4, -2, 1, 0
1491432369826,-1, 1, -3, 0, -1, 0, 0, -1
1491432369846,-3, 0, 3, 0, 1, 3, -1, -1
1491432369849,-4, 1, -2, -3, 2, -1, -2, -2
1491432369857,-3, -3, -3, -2, 1, -3, -2, 0
1491432369864,-1, 1, -1, 1, -1, 0, -3, -2
1491432369879,-2, 1, -1, 0, -4, -1, 0, 2
1491432369887,1, -3, -3, -2, -4, -3, 0, 1
1491432369902,-1, -1, -3, -1, 1, -2, 0, -1
1491432369909,0, -4, -3, 0, -2, -5, 1, -2
1491432369917,-1, 4, 1, -2, -1, 3, -1, 2
1491432369924,-2, -3, -2, 0, -3, 0, -2, -4
1491432369946,1, -2, 0, 0, 1, -3, -3, -3
1491432369947,0, -3, -1, 2, 0, -1, -1, 0
1491432369962,0, -5, -1, -1, -1, -5, 0, -1
1491432369969,1, -2, -2, -5, -1, 2, 2, 3
1491432369977,2, 4, 2, 2, -1, 2, -1, 0
1491432369992,-1, 3, 1, 0, -1, -2, -1, 0
1491432369999,-1, -1, 0, -1, 0, -2, 0, -3
1491432370006,0, -4, -1, -1, -3, 3, 0, 1
1491432370007,0, -2, 0, -1, -2, 1, 0, 3
1491432370022,2, 7, 1, -2, -1, -2, -1, -2
1491432370029,2, 4, -2, -1, 1, 1, 1, -3
1491432370037,0, -2, -1, 0, 0, -2, -1, 0
1491432370052,0, 0, -3, -1, 0, 1, -1, -3
1491432370059,-4, -8, -5, -1, 0, -2, -2, -2
1491432370067,0, -5, -1, -1, 0, -3, 0, 1
1491432370082,-2, -3, 0, -3, -4, 0, -1, 0
1491432370089,0, -2, 1, -2, -2, -1, -1, -1
1491432370097,-2, 0, -2, -1, -2, -2, 0, -3
1491432370112,-1, 1, 0, 0, 2, -3, 0, 0
1491432370119,0, -7, -2, -1, 1, 2, 1, 2
1491432370126,-1, -1, 1, 1, -4, -2, -1, 0
1491432370142,-1, -2, -2, -1, -2, -1, -2, 0
1491432370149,1, 4, 2, -2, 0, -1, -2, 2
1491432370157,2, -2, -1, -4, 0, -1, 0, -1
1491432370171,-1, -1, -1, -2, 0, -1, -1, -1
1491432370179,-3, -1, -3, 2, 3, -3, 0, 0
1491432370186,-2, -4, -3, 0, 2, 0, -1, 0
1491432370187,-2, 0, -3, 1, 2, 0, -2, -1
1491432370202,-2, -2, -2, -2, -3, 1, 0, 1
1491432370209,-2, -1, -2, -1, -4, -2, 1, -2
1491432370210,-1, -6, -4, -2, -4, -1, 0, 0
1491432370217,1, 3, 0, 0, 0, 1, -1, -1
1491432370232,0, -2, -1, 1, 0, -1, -2, 0
1491432370233,-2, -1, -1, -1, 1, -1, -3, 1
1491432370240,-1, -2, 0, 0, -1, 1, -1, -3
1491432370246,-2, 2, -3, -2, -1, -2, 1, -2
1491432370262,-2, -4, -3, -2, 2, -4, -1, -1
1491432370269,0, -5, 1, -4, -3, 2, 2, 1
1491432370277,-3, -4, 0, -2, -4, -1, -1, -3
1491432370291,0, -3, -1, 1, -2, 1, -1, -2
1491432370299,2, 0, -2, -1, 0, -4, -2, -3
1491432370306,-3, -2, -1, -2, 0, -3, -1, -2
1491432370322,-2, 0, -2, -2, 1, 1, -4, 0
1491432370329,-1, 1, -1, 3, -2, 2, -1, -2
1491432370337,0, -3, 0, 0, -1, -3, 0, 0
1491432370351,1, -2, -2, -1, 0, -4, -1, -1
1491432370359,-1, -1, -1, 0, -3, 0, 1, 1
1491432370366,0, -3, 0, -2, 1, 1, 1, -1
1491432370382,2, 5, 5, 0, -2, 2, -1, 0
1491432370389,-1, -2, -1, -1, -1, -1, 1, -3
1491432370397,0, -3, -1, -1, -2, -1, 0, -3
1491432370411,-2, 0, -1, -1, -1, -2, -2, -1
1491432370419,0, -4, -1, 0, -3, -1, -2, 2
1491432370426,-2, -1, -2, -1, 1, -4, -3, -3
1491432370443,0, -2, 0, 1, 3, -1, -2, -1
1491432370449,-1, -1, 0, 1, 1, 2, 2, 2
1491432370457,-2, -3, -1, -3, -1, 1, -1, -1
1491432370471,-1, -1, -1, -2, -5, -2, -1, -2
1491432370479,-2, -1, -2, -2, -2, 1, -1, 1
1491432370487,-2, 4, -4, 0, 0, -2, 0, 0
1491432370502,0, -3, -2, -2, 0, 1, -2, -3
1491432370509,1, -8, -2, 0, -1, 0, -1, 0
1491432370517,-1, -2, -2, 1, -1, -5, -2, -4
1491432370531,0, -3, -1, 0, -2, 1, -1, 0
1491432370539,0, 0, 1, -4, 0, -1, -1, 0
1491432370547,-1, -2, -1, -4, -2, 0, -1, 0
1491432370562,-3, -1, -2, 1, 1, 4, -1, -3
1491432370569,-1, 3, -1, 1, 0, -2, -1, 0
1491432370577,-3, -2, -4, 1, -1, -2, -2, 0
1491432370591,3, -1, -2, -1, -2, 2, 1, -1
1491432370592,-2, -5, -1, -3, 0, -1, -1, 0
1491432370600,-2, -2, 0, -1, -2, -1, 1, 1
1491432370606,0, 0, -1, -2, -2, 2, -2, -4
1491432370624,-2, -4, 0, -2, 4, 0, 0, 0
1491432370625,5, 8, 1, 1, 2, -1, 0, -1
1491432370629,-1, -4, 1, 1, -1, -4, -2, -2
1491432370644,-2, -2, -2, -1, -3, -3, -1, -1
1491432370652,-1, 1, 0, 0, -1, -3, 0, 0
1491432370654,0, -2, -4, -1, -2, -3, 0, -2
1491432370659,-1, -3, -2, -1, -1, -2, 0, -1
1491432370666,1, 1, 3, -1, 1, 0, -2, 0
1491432370682,-3, -3, -1, -1, 0, 3, -3, 1
1491432370689,-1, -2, 0, -2, -1, -1, 0, -3
1491432370697,2, 1, 2, 2, -2, 4, -2, 0
1491432370711,-2, -2, -5, -2, -1, -3, -1, 2
1491432370719,-1, -4, -2, -1, 1, -4, -1, -3
1491432370727,-1, 0, 0, 0, 0, 1, -1, -2
1491432370742,1, -1, -1, -3, -3, -1, -1, -1
1491432370749,-1, -1, -3, 1, -3, 0, 0, -2
1491432370757,-2, -2, -2, -1, -5, -1, -2, 2
1491432370771,0, 2, 0, -4, -4, -2, 2, 1
1491432370785,-1, -5, -2, 0, 0, -5, 1, -1
1491432370786,-1, -5, -4, 2, 2, -3, 0, -3
1491432370787,-2, -1, 1, -1, 1, 1, -2, 0
1491432370802,2, -3, -2, -2, 0, -1, -1, -2
1491432370810,-2, -7, -3, 0, 0, 2, 0, -2
1491432370817,-3, -2, -2, 1, -1, -2, 1, -1
1491432370831,0, -2, 0, 0, 3, -2, -2, -1
1491432370839,1, 2, 6, 3, 0, -1, 1, 2
1491432370846,-1, 0, -1, 1, -1, 0, 1, 1
1491432370862,-2, 2, -2, -2, -1, -1, 1, -2
1491432370869,0, 3, 0, -2, -1, -3, -4, -2
1491432370877,-1, 1, 1, -4, -2, 1, -2, -1
1491432370891,-2, -2, -1, -2, -2, -2, 1, -1
1491432370899,-1, 1, 0, 0, 1, -8, -2, -2
1491432370906,0, -1, -1, -2, 1, 1, 1, 2
1491432370922,-2, -1, -3, -5, -5, -1, -2, 5
1491432370928,0, -2, 2, -1, 1, -2, -1, -9
1491432370929,2, -2, 3, 0, 4, -1, 1, 23
1491432370951,-3, 0, -1, 1, 5, 3, -1, -6
1491432370952,-2, -4, -4, -1, -5, -1, 1, 1
1491432370959,-1, -1, -2, -1, 1, -1, -4, -7
1491432370974,-9, -5, -2, 2, -3, -2, -4, -24
1491432370982,-1, -3, -1, -1, -3, -1, -1, -9
1491432371003,3, 0, 0, -2, -1, 0, -2, 0
1491432371006,0, -2, -2, -2, -2, 0, -2, 6
1491432371011,-2, -7, -3, -1, -1, -2, -8, -2
1491432371021,0, -1, -1, -3, 0, 2, 0, 3
1491432371034,0, -2, 0, 0, -1, -4, 0, -2
1491432371051,0, -1, 2, 0, -3, -2, -1, -7
1491432371064,0, 0, -1, 0, 1, -3, 1, 1
1491432371072,0, 3, 0, 0, 2, 0, -1, -1
1491432371079,-2, 3, -2, -3, 1, 1, 0, -6
1491432371094,-3, 5, 0, -1, -3, 0, -1, 5
1491432371103,0, -8, -4, 0, 1, -3, 0, 0
1491432371109,2, -3, -4, -1, -3, 1, 1, -2
1491432371124,1, 4, 2, 0, -3, 1, -1, 3
1491432371131,-3, 5, -1, -2, 0, 0, 2, 5
1491432371139,1, 2, -2, 0, -2, 1, -1, -3
1491432371154,-2, 1, -3, -2, 0, 1, 0, -5
1491432371155,-3, -3, 1, -1, 1, -1, -2, -6
1491432371162,-13, -3, 2, 0, 0, -3, -5, -1
1491432371168,15, -2, -7, -1, -3, -2, 0, 7
1491432371169,3, 1, -1, 0, -1, -2, 0, -1
1491432371184,-2, -4, 0, 1, -4, -2, 0, 1
1491432371191,4, -8, -2, 2, 2, 3, 4, -1
1491432371200,5, -3, -3, 0, -2, -2, 3, 13
1491432371214,1, -1, -2, 0, 0, 1, 0, -6
1491432371222,2, 1, -1, 0, 0, -1, 0, 0
1491432371229,-4, 7, -1, -1, -1, -1, -3, 2
1491432371244,-3, -4, -3, -3, 3, -2, 1, -3
1491432371251,-2, -5, -3, -3, -2, -3, 1, 2
1491432371259,4, 8, 3, 1, -1, 0, -1, -1
1491432371274,-4, 0, 2, -5, -4, 3, -4, 0
1491432371282,5, 11, 4, 1, 0, 2, 3, -1
1491432371289,-1, -2, 2, 1, 0, 0, -1, -1
1491432371305,-5, -7, -1, -3, -4, -3, -1, -9
1491432371311,3, 2, 0, 3, 1, -3, 2, -1
1491432371319,-1, 0, 7, -1, -1, 1, -4, -10
1491432371340,-7, 1, -2, -1, -2, -1, 0, -1
1491432371341,8, -6, 0, -2, -1, 1, -1, -7
1491432371342,3, -6, -1, -1, -1, 1, 3, 10
1491432371348,-6, -4, 1, -3, -3, -4, -8, -11
1491432371349,-6, -9, -4, -3, -3, -3, -1, 4
1491432371365,-2, -9, -4, 2, -3, -1, -1, -2
1491432371371,0, 0, -2, -1, 3, -4, 0, 12
1491432371379,-2, -9, -5, -3, -2, -1, 0, 11
1491432371394,1, 0, 0, -3, -5, -1, -2, 3
1491432371409,-5, -5, -7, -3, -1, -4, -7, -14
1491432371410,-7, 2, -1, 1, 1, -2, 0, -4
1491432371424,0, -4, -1, 0, -1, -1, 0, -2
1491432371431,-2, -3, 1, 0, -3, -1, -3, -8
1491432371441,-6, -5, 1, 0, 0, 2, -5, -13
1491432371454,-9, -1, 0, 0, -1, 2, -5, -36
1491432371462,0, 1, 2, 0, 1, -1, 1, -6
1491432371469,2, -2, -1, -2, 0, -3, -2, 6
1491432371484,0, -1, -1, 1, -1, 1, -1, 12
1491432371498,-8, -5, -4, -1, 3, 4, 2, 6
1491432371500,0, -3, -4, -1, 0, -3, 4, 2
1491432371514,-2, -1, -4, 0, 0, -3, 2, 12
1491432371524,7, 2, 4, -1, -1, -1, 0, 5
1491432371529,-1, 0, 1, 1, -2, -2, 0, -2
1491432371544,-1, 1, -1, 0, 3, 1, -1, -8
1491432371551,7, 1, 0, 0, 1, 5, 0, 30
1491432371559,0, 4, -2, 0, 0, -2, -3, 0
1491432371581,-18, -3, -2, 0, -4, -1, -1, -12
1491432371582,-2, -6, -4, 0, 0, 0, 0, -2
1491432371589,7, -3, -1, -1, -3, -3, 1, 17
1491432371604,-2, 0, 1, -1, -1, -1, -2, -5
1491432371611,0, 2, 1, -4, 2, -2, -2, -26
1491432371619,19, 1, -4, 0, -1, -1, 2, 5
1491432371634,-3, -2, 0, -1, -2, -2, -3, -2
1491432371642,-9, 0, -3, -2, -3, -2, -3, 0
1491432371649,5, -10, -4, -2, -4, -2, -1, 0
1491432371664,-4, 0, 0, 0, -1, 0, -2, 0
1491432371671,-1, 2, 5, 3, 3, 4, 2, -3
1491432371679,-1, -2, -3, -2, 1, 0, 0, 12
1491432371694,0, 2, 2, 0, -4, -3, 1, -9
1491432371702,-3, -6, -1, 0, -3, -2, 0, -2
1491432371709,0, 5, -1, 0, -1, -5, 0, 2
1491432371724,-4, -2, -1, 0, 5, 5, 0, -1
1491432371731,2, -5, -6, 0, 3, 4, -1, -11
1491432371739,-5, -4, -1, -2, -1, -3, 0, -2
1491432371754,-12, 0, -3, -3, -4, -1, -2, -1
1491432371769,-3, -4, -1, 0, -2, -3, -3, -3
1491432371770,-1, 2, -1, 0, 1, -1, 1, 4
1491432371791,1, 0, -1, 1, -1, -2, -1, -3
1491432371792,1, -5, -2, -3, 1, -3, -3, -3
1491432371799,-1, -3, 4, -2, 0, -1, 0, -2
1491432371814,0, 5, 1, -1, -1, -1, -1, -8
1491432371822,-6, -4, -4, -2, -4, -1, 2, -4
1491432371829,-26, -1, 1, 0, 0, -1, -2, 5
1491432371844,-5, 0, -2, 0, -1, -2, -2, -5
1491432371851,11, -2, -2, 0, -4, -2, -2, 3
1491432371873,-2, 10, 10, 1, 0, 2, -1, 0
1491432371874,8, -1, -1, -2, -3, 1, -1, 1
1491432371882,7, -1, -3, -4, -1, -1, -2, 5
1491432371896,2, -3, -1, 3, 3, -1, -3, 12
1491432371904,16, -2, -2, -2, -2, 1, 1, 18
1491432371911,-3, -9, -3, -4, -2, 0, 0, 10
1491432371926,-4, -4, -5, -1, -1, -3, -1, -4
1491432371940,-3, 2, -2, 2, 2, 2, 0, 8
1491432371941,9, 1, -1, 0, -1, 1, -3, -1
1491432371942,9, 1, -1, -1, -1, 3, -1, 19
1491432371943,-19, -2, -2, 0, -1, -1, 1, -21
1491432371957,-1, -2, -2, 2, -1, 1, -1, -20
1491432371964,38, -4, -2, -1, -4, -5, -8, -8
1491432371971,-4, -7, 1, 1, 1, -3, -2, -7
1491432371986,-8, -2, 0, 1, 0, 1, 1, 11
1491432372000,0, -7, -2, 0, -4, -1, 0, 24
1491432372001,3, 3, 2, 0, -2, -2, 6, -21
1491432372004,-20, -9, -6, -2, 1, 2, 0, -19
1491432372016,-5, 12, 0, 1, 0, 5, -3, -19
1491432372024,2, 3, -1, -2, 0, -2, 0, 16
1491432372031,4, 1, -1, 0, 0, -1, 11, 5
1491432372047,-7, -5, -1, -2, 2, -4, -3, -1
1491432372054,10, -4, -4, -2, -5, -5, -4, 12
1491432372062,-4, -3, -2, 2, -2, -1, 3, -17
1491432372076,-14, -8, -1, -2, 1, -2, 0, -2
1491432372084,-1, 5, 1, 2, 3, 0, -2, -36
1491432372091,-1, -6, -4, -2, -4, 0, -3, 5
1491432372106,-9, 8, 4, -2, -4, 3, 8, 14
1491432372114,-30, -10, -5, -1, 4, 3, 0, 31
1491432372124,4, -2, 1, 1, -1, 5, -5, -8
1491432372135,12, -2, 0, -2, -12, -5, 10, -21
1491432372144,13, 16, 5, 1, -1, 0, -1, 41
1491432372151,11, -7, -7, -1, -1, 0, -1, -23
1491432372152,4, 5, 1, 0, 5, 1, 2, 1
1491432372166,12, -4, -2, -3, 3, -1, -5, -26
1491432372174,17, -5, -1, -2, -6, -4, -4, 26
1491432372182,-2, -4, -5, 0, 1, -3, -2, 2
1491432372196,3, 18, 7, 3, 3, -2, -11, -10
1491432372204,-32, -4, -3, -3, -7, -2, 5, 17
1491432372218,-6, -11, -3, 0, -1, 0, -4, -10
1491432372226,1, -3, -3, -2, -2, 1, -2, 4
1491432372240,-5, 2, 0, -1, 2, 4, 5, 11
1491432372241,-8, -9, -2, -7, 3, 0, -3, 17
1491432372249,-12, -2, -2, 0, -1, -2, -4, -32
1491432372250,14, 1, 3, 3, 1, -2, -7, -30
1491432372263,6, 0, -3, -2, 0, 3, 0, -9
1491432372265,-5, -10, -1, -2, -3, -2, 0, 9
1491432372271,11, -22, -9, -1, -3, -1, 2, 4
1491432372286,1, -5, -1, 2, 5, 3, 5, 61
1491432372294,-11, -2, -1, -3, -3, -4, -7, 0
1491432372302,-15, 2, 1, -1, -3, -1, 1, -7
1491432372323,-9, 1, -1, -4, -3, -3, -1, -1
1491432372325,-3, 2, -3, -3, -3, -3, -3, -26
1491432372331,3, 6, 0, 3, 1, -2, -2, -9
1491432372346,20, -9, -4, 0, 4, 1, 3, 11
1491432372354,-12, -6, 0, 1, 3, 6, -4, -37
1491432372362,-38, -7, -1, -1, -5, -2, -1, 6
1491432372376,6, 0, 1, -3, -6, -4, -2, 2
1491432372384,8, -5, 2, 0, -1, -1, -2, -17
1491432372391,-4, 0, -4, -4, -2, -1, 1, 10
1491432372406,12, -32, -13, -2, 3, 1, 2, 12
1491432372414,-3, -9, -4, -1, 3, -2, -1, 14
1491432372422,4, 3, 1, -1, -3, -1, -6, -16
1491432372436,-9, 3, 0, 0, -1, -3, 0, -8
1491432372444,-9, 6, 0, -1, -1, -4, -4, -15
1491432372452,-39, 5, 0, -1, -2, -2, -4, -17
1491432372466,0, 18, 7, 1, 0, -1, 1, 5
1491432372474,9, 4, 3, 2, 1, 1, 1, 6
1491432372483,-6, -9, -3, -2, 1, 1, 2, -7
1491432372495,-6, 1, -3, -1, 0, -4, -9, -8
1491432372496,10, 3, 1, 0, 4, 3, 2, -1
1491432372504,10, 0, -4, -2, -3, 0, 2, 1
1491432372511,8, -9, 3, 0, -3, 0, 6, 30
1491432372527,-4, -6, 0, 0, -5, -6, -8, -17
1491432372534,10, -8, -3, -2, 0, 0, 0, -3
1491432372543,-13, -4, -5, -1, -1, 1, 2, -5
1491432372555,1, -9, 7, 1, -1, 0, 2, 4
1491432372556,-1, 2, 1, 0, 0, 0, -2, -1
1491432372564,6, 4, -1, -2, -2, -1, -5, 11
1491432372572,8, 12, 11, 5, 0, 0, -1, -3
1491432372586,12, 9, 12, 3, 3, 2, 1, 8
1491432372594,2, -2, -6, -4, -5, -2, -3, -1
1491432372602,-2, -5, 0, 2, -3, -5, -6, -27
1491432372616,2, -6, -4, 0, 1, -1, 0, -9
1491432372624,-11, -11, -7, -3, 0, -2, 2, 3
1491432372631,-2, 3, -7, -2, -7, -3, 0, 14
1491432372646,9, 8, 1, 0, 0, 1, -1, 18
1491432372654,2, 3, 0, -4, -1, -2, -1, 4
1491432372662,-10, 0, -5, -4, 0, -5, -8, -5
1491432372676,5, -4, 2, 2, 0, 1, -1, -6
1491432372684,-13, -5, -4, -1, -2, 1, 1, -6
1491432372691,-12, -6, 0, 0, 1, 0, 0, -3
1491432372707,12, 2, 0, -4, -4, -2, -3, -5
1491432372714,3, 1, 0, -2, 0, 0, 1, -2
1491432372722,21, 1, -3, 0, 0, 0, 2, 19
1491432372736,-5, -9, -3, -1, -4, -3, -3, -11
1491432372744,-7, 1, -4, -1, 3, 4, 3, 2
1491432372752,-3, 5, -2, 0, -2, -4, 2, 0
1491432372767,3, 4, 0, -2, 1, 0, 6, 18
1491432372774,3, -2, 1, -4, -1, -1, -2, 0
1491432372789,4, 1, 2, -1, 0, 2, -3, 3
1491432372797,-3, -4, -2, 0, -2, -1, 1, 2
1491432372804,-4, -3, -1, 0, -3, -4, 3, 1
1491432372818,-3, 1, -2, -2, -4, -3, 0, -9
1491432372827,-2, -3, 3, -1, -3, -4, -2, 3
1491432372834,2, 1, -2, 2, 0, 4, -4, 13
1491432372850,-3, -4, 2, 0, 0, 1, -3, -10
1491432372856,-2, -8, -4, 2, 2, 3, 3, 0
1491432372871,-1, 7, -2, -1, -3, -4, -5, -20
1491432372878,3, 3, -1, -1, 1, -2, -1, -4
1491432372886,3, 0, 0, 0, 1, 1, -2, -5
1491432372894,-4, -1, -1, -4, 0, -4, 0, 7
1491432372909,-4, -10, -7, 0, 3, 0, -9, 3
1491432372918,1, 4, 2, 1, 1, -3, -1, 4
1491432372924,3, 7, 1, 3, 0, 3, 5, -6
1491432372938,0, -2, -3, 0, 0, 1, -2, -8
1491432372946,-4, -5, -3, -3, -4, -4, 3, -3
1491432372954,0, 0, 1, -1, 2, -2, -1, -7
1491432372969,0, -4, -2, -2, -2, 3, 0, 4
1491432372976,-5, -7, -5, -6, -5, -2, -4, -3
1491432372984,-11, -6, -2, -2, 2, -2, 0, -21
1491432372998,-5, 2, -1, 1, -3, 2, -2, -19
1491432373006,-3, -7, -4, 1, -1, -1, 4, 6
1491432373013,-2, -5, 1, -4, -5, -4, -1, -7
1491432373014,1, -2, -1, 0, -1, -1, -2, 3
1491432373029,-4, -1, 0, 1, 0, -3, -2, -2
1491432373036,1, 2, 2, -1, -4, -3, 4, -3
1491432373044,0, -5, -2, -1, 2, 0, 0, -3
1491432373058,1, 3, 3, 3, 1, 1, 4, 3
1491432373066,3, 6, 1, 2, -2, -1, -2, 3
1491432373074,-2, -1, -4, 0, -1, -4, -2, -4
1491432373090,0, 7, 0, 1, 1, 1, 0, 1
1491432373096,3, -9, 0, -1, 2, 3, 2, 9
1491432373104,-2, 4, 4, 0, -3, -4, -12, -16
1491432373118,0, -3, -2, -1, -3, -1, -9, 5
1491432373127,0, -5, -2, -4, 0, -1, 3, 2
1491432373134,-3, -1, -2, -5, -3, -1, -2, 4
1491432373149,-2, -2, -3, -4, -4, 0, 0, 2
1491432373157,2, 6, 0, 3, 2, -1, -3, -7
1491432373158,-1, -1, -2, 0, 1, 0, -2, -2
1491432373164,-1, -3, -5, -5, -3, -3, -1, 4
1491432373178,0, 1, 0, 2, 2, 0, 0, -2
1491432373186,-1, -1, 4, 3, -3, -1, -2, -4
1491432373194,-3, -3, -1, 1, -2, -2, -5, -23
1491432373209,-4, -4, -4, 0, 1, -1, -9, 16
1491432373216,-7, -5, 0, -3, -3, -4, -6, -19
1491432373225,-5, -14, 0, -3, -4, -5, 2, 0
1491432373238,-1, 1, -2, -1, 0, 3, 1, 3
1491432373246,7, 6, -2, -4, -1, -2, 0, -8
1491432373254,1, -4, -2, -3, -2, -1, 3, -2
1491432373268,-4, -3, -1, -3, 0, 0, -10, -9
1491432373269,0, -1, 2, 2, 2, 3, 3, 8
1491432373276,0, 2, 1, 1, -1, 0, 1, 5
1491432373284,2, 2, -2, 0, 2, 2, -1, -7
1491432373298,-2, -4, -7, -2, -1, 3, -3, -5
1491432373306,-3, 2, -3, -2, 0, 2, 1, -2
1491432373314,-3, 2, -2, -3, -2, -2, 8, 3
1491432373329,-3, -6, 1, 1, -1, -2, 1, 5
1491432373336,0, -1, -4, -3, 1, -4, -3, -8
1491432373337,6, 6, 4, 0, 2, 1, 3, 10
1491432373344,-8, -10, -6, -6, -6, -4, 5, -5
1491432373358,0, -3, -1, -1, -4, -3, -7, 1
1491432373366,1, -2, 2, 3, -1, -1, 0, 4
1491432373374,-1, 3, 0, -1, 0, 1, -2, 18
1491432373389,1, 0, -2, -5, 2, 1, 3, -7
1491432373396,1, 7, -1, -2, 2, -2, 4, 1
1491432373404,3, 18, 4, 3, -4, 1, -5, -7
1491432373418,-5, -7, -3, 1, 3, -2, -3, -14
1491432373427,0, -1, 2, -1, -1, 0, -2, -10
1491432373433,-1, -12, -5, -4, -2, 2, -1, 4
1491432373449,0, -8, -1, 1, 3, -4, -2, 3
1491432373456,-3, -10, -4, -1, 0, -1, 2, -5
1491432373466,0, 9, 4, 1, -2, -3, 5, 4
1491432373478,-4, -3, 5, 1, -2, -2, -1, -13
1491432373486,-6, -3, -1, -5, -5, 1, -2, -10
1491432373494,2, 10, 0, 1, 3, 2, -9, -1
1491432373509,-5, -16, -8, -3, 0, -1, 1, 7
1491432373516,-1, -8, -5, -2, -4, -5, -2, -1
1491432373524,-2, -8, -1, -2, 1, -1, -3, 5
1491432373538,0, 1, -3, -3, -5, -7, 1, 8
1491432373547,1, -2, -1, 1, -3, 1, 2, 5
1491432373554,7, 4, 1, 2, -1, 0, -4, 25
1491432373568,0, 2, 1, -1, 3, 1, -2, -4
1491432373576,5, 3, 4, 2, 2, -2, 3, 14
1491432373585,8, 9, -3, -2, -2, -3, 0, 14
1491432373598,-7, -13, -6, -6, -4, 5, 6, 1
1491432373606,1, 10, 3, 6, 6, 4, 0, -5
1491432373614,-6, -2, -1, -1, -1, 2, -1, -9
1491432373629,0, -1, 1, -1, 0, -4, -5, -3
1491432373636,0, 3, 3, 0, 2, -3, -4, -9
1491432373645,0, -6, -5, -4, -6, -2, 2, -4
1491432373658,-2, -4, -1, 0, -1, -2, -8, -17
1491432373666,-5, -3, -3, -1, -2, -4, -1, -3
1491432373674,4, 6, -1, 1, -1, 6, 8, -1
1491432373689,-1, -11, -3, -4, -7, -3, -4, -13
1491432373703,-4, -9, -5, -1, -2, -1, -3, -11
1491432373711,-5, -9, -2, 0, 0, 0, 3, -22
1491432373719,-6, -8, -1, -3, -1, -4, 4, -6
1491432373726,-4, -1, -1, 3, 2, -3, -9, 7
1491432373740,-4, -3, 1, -3, 0, -1, -2, 4
1491432373750,9, 5, 5, 2, 3, -2, -1, 7
1491432373757,5, 2, -1, 2, 0, 0, 5, 16
1491432373771,-2, 1, -4, -4, -5, 0, 3, -7
1491432373778,5, -1, -3, -1, 0, 2, 0, -1
1491432373786,-2, -3, 0, -1, -1, 0, -8, -13
1491432373801,-5, 2, 0, -4, -1, -3, -7, 43
1491432373808,12, -2, -2, 1, 1, -3, -1, -1
1491432373809,-12, 1, 2, -2, 0, -2, -3, -3
1491432373816,-2, -2, -1, -3, -4, -5, -5, -17
1491432373831,6, 14, 9, 4, 1, -5, 2, 19
1491432373840,-6, 1, 2, 0, -2, 0, 5, -20
1491432373846,11, -6, -2, 0, 1, 2, 7, -3
1491432373860,1, 0, -2, 2, 1, 0, 3, 9
1491432373869,0, -5, 0, 2, 5, 2, 0, 7
1491432373876,6, 10, 4, 3, 4, 3, 2, 0
1491432373891,-10, -16, -9, -6, -6, -1, -3, -11
1491432373898,1, 0, -1, 2, 2, 0, -12, -14
1491432373906,-4, 6, -3, -3, 0, 1, 2, 12
1491432373920,1, 1, 2, 0, -1, -4, 1, -11
1491432373929,-4, -11, -4, -8, -1, -1, -6, 0
1491432373936,1, -2, -5, -3, -2, 0, -2, 14
1491432373951,1, -3, 2, 3, 0, -1, -4, -5
1491432373958,-2, -12, -2, 1, -2, -2, -1, 8
1491432373967,-1, 5, -1, 1, -7, -6, -3, -3
1491432373981,-4, -14, -3, -2, 0, -3, 4, 0
1491432373989,1, 3, -3, -1, 4, 5, 1, -20
1491432373996,-2, -3, 0, -1, 0, -2, -2, -5
1491432373997,-1, -2, -2, -4, -3, 3, 6, -1
1491432374011,-3, -6, -4, -2, -2, -3, -8, 3
1491432374018,-4, -5, 0, 1, -2, -5, -7, -5
1491432374026,-1, 6, 2, 1, 10, 2, 2, -3
1491432374040,-3, 9, 0, -1, -2, -2, -2, -6
1491432374050,-1, -4, 0, -2, -4, 0, 3, 11
1491432374056,1, 0, 0, 0, -2, -1, -1, -28
1491432374071,-4, -7, 0, -2, -6, -3, -4, 15
1491432374072,-2, -8, -1, 0, -1, 0, 0, -18
1491432374078,1, 1, 0, 4, -4, -2, -5, 0
1491432374086,-5, -10, -4, -3, -5, 0, -2, 10
1491432374100,-1, 5, 0, 4, 7, 2, 0, 6
1491432374108,0, 7, 2, -2, -2, -4, 2, 7
1491432374123,-2, 10, -3, -6, -6, -3, 2, 24
1491432374131,6, 7, 5, 2, -1, 0, -10, 3
1491432374138,-3, -3, 3, 2, 4, 0, 8, 1
1491432374139,-3, -18, -3, 2, 1, -2, -12, -5
1491432374146,1, -1, -4, -2, -2, 2, 5, 6
1491432374160,0, -2, 1, 2, 3, -2, -7, 7
1491432374169,-2, -2, -1, -2, -4, -4, 1, -2
1491432374176,-1, 0, -2, -5, -4, 3, 7, -22
1491432374191,0, 3, 0, 1, 2, -1, 3, -3
1491432374198,1, 0, 3, -4, -4, -1, -2, -15
1491432374207,-1, 1, 0, 2, -2, 1, -1, 8
1491432374220,0, -5, 0, 3, 0, 1, -2, 3
1491432374221,-2, -6, -4, -3, 0, -1, 1, -4
1491432374229,-2, 0, 4, 3, -9, -3, -2, 21
1491432374236,-2, -2, 1, 0, -4, 2, 4, -24
1491432374251,0, 1, -2, -4, 3, 0, 3, -27
1491432374260,2, 0, 2, 3, 13, 0, -1, -35
1491432374266,-4, -1, -1, -2, -1, -4, -3, -29
1491432374267,1, -3, -1, -2, 1, -8, -7, -16
1491432374280,1, -3, -5, -1, 0, 2, 2, 14
1491432374289,-1, 0, -1, -1, 3, 2, 1, -21
1491432374296,-1, -1, -4, -1, -9, -2, -1, 22
1491432374311,-8, -6, -5, -2, 9, 1, 5, 31
1491432374318,3, 12, 1, -4, -5, -2, -3, 13
1491432374326,1, -6, -1, -2, -5, -1, -5, 20
1491432374340,-4, -10, -3, -5, -2, -1, 5, 4
1491432374350,0, -1, -4, -1, -1, 1, -1, -10
1491432374356,-3, -6, -2, -2, -3, -5, -1, 15
1491432374371,0, -2, -4, 0, -3, -1, -1, 12
1491432374378,1, -5, -1, 2, 4, 0, 0, 13
1491432374386,1, -4, -1, 0, -3, -1, -2, 21
1491432374400,-2, -3, -2, -1, 1, -1, -3, -12
1491432374409,-3, -7, -4, -24, -13, -1, -2, -21
1491432374416,-8, -1, -2, -8, -3, 2, -2, -13
1491432374431,3, -1, -1, -1, -2, 0, 0, -9
1491432374438,-1, -5, -3, -5, -4, 0, -1, -2
1491432374446,-10, -3, -1, 44, 10, 0, -2, -9
1491432374460,-2, 2, 2, 10, 4, -5, -3, -3
1491432374469,-3, -2, -4, -19, 0, -2, 0, -1
1491432374470,-3, -2, -2, -9, -3, -4, 2, 2
1491432374476,14, -2, -3, -6, -2, 1, -1, 9
1491432374491,10, 3, -7, -9, -2, 2, -3, -12
1491432374498,-11, 0, -1, -16, -2, -3, -3, -3
1491432374506,-5, 0, 1, -4, 4, 0, 2, 2
1491432374522,2, 0, 2, 4, -5, -1, 1, -22
1491432374528,-7, -4, -1, -3, -2, -4, -1, -9
1491432374529,16, 2, 2, -3, 1, -1, -1, -6
1491432374536,-1, 1, 2, 16, 5, 3, -2, 9
1491432374551,12, -1, 1, -13, -4, 0, 1, 11
1491432374559,1, 1, 3, 1, 3, 5, 1, 3
1491432374567,3, 3, 2, 2, -1, 3, 1, 2
1491432374580,-16, 1, -4, -5, -2, -1, 2, -1
1491432374589,-12, -2, -2, -4, -5, -6, -1, -3
1491432374596,9, 1, 3, 8, 2, 0, -1, 5
1491432374611,-1, 0, 0, 0, 0, -1, -3, -7
1491432374618,3, -2, -2, 8, -2, -3, -1, -3
1491432374626,-4, -1, 2, 1, -4, -5, -3, -6
1491432374641,1, 0, -2, -3, -2, 0, 1, -2
1491432374642,-2, -1, -1, -6, -2, 2, -3, -11
1491432374649,1, -1, -4, 2, -3, 1, 0, 10
1491432374663,-4, -3, -2, -2, -1, -6, 3, 9
1491432374671,-4, -4, -3, 1, 2, 1, -2, 14
1491432374679,-4, 7, 0, 2, -5, -5, -6, -8
1491432374680,4, -12, -8, -5, -1, -3, -4, 0
1491432374694,-10, -6, -3, 0, 0, 1, 2, 0
1491432374700,1, 3, 1, 0, -4, -1, -4, 1
1491432374709,-4, 2, 2, -1, 0, 0, -3, -17
1491432374723,-2, 1, -4, -4, 2, -4, 1, 1
1491432374731,-1, -2, -1, -2, 2, -3, 2, -4
1491432374738,-2, -4, 0, 9, 6, 1, 1, -4
1491432374754,-1, 0, -2, 0, -1, -1, -1, -7
1491432374768,-1, -5, 1, -8, -4, -3, -5, -8
1491432374770,1, -2, 1, -1, -1, 0, -1, 4
1491432374783,3, 3, 2, -1, -2, -2, 0, 16
1491432374791,-1, -3, 1, 0, 3, 4, -1, -5
1491432374798,-12, 2, 8, 4, -2, 0, -11, -35
1491432374814,-3, 0, -2, 1, 3, 0, 2, 8
1491432374820,2, -1, -1, -4, 2, -3, 2, 9
1491432374828,-3, 0, 1, -2, -2, -1, -3, 3
1491432374829,-3, -5, 0, 0, -3, 0, -1, -7
1491432374843,-4, -3, -3, -3, -9, -2, 4, 0
1491432374852,2, -3, -1, 1, 10, 1, -1, 0
1491432374859,-1, 0, -2, -3, -3, 1, 1, 0
1491432374873,-4, -2, -4, -1, -8, -4, 0, -4
1491432374874,-3, 0, 0, -3, -4, 1, -1, -1
1491432374880,4, -1, -2, -4, 1, -3, -6, -2
1491432374889,-6, 0, -1, -5, 0, -2, 3, -4
1491432374890,-5, -3, -2, -1, -2, -3, -3, 3
1491432374911,3, -2, -3, -1, -5, -2, 0, 2
1491432374912,3, -1, -1, 3, -6, 2, 0, 2
1491432374926,-1, -2, -3, -2, -4, -3, -4, -5
1491432374927,0, 0, 4, 3, 3, 1, 4, 5
1491432374934,-12, -1, -3, -2, -4, -5, -8, -12
1491432374942,-5, -7, -1, 0, -12, -4, -2, -7
1491432374949,5, 0, 2, -1, 1, 4, 7, 8
1491432374966,0, 5, -2, -2, -9, 0, 0, 6
1491432374972,-5, -9, -2, 2, 6, 0, -1, -11
1491432374987,0, -12, -8, -2, 11, 0, 4, 7
1491432374995,-5, -7, -6, 1, -1, -1, -2, -8
1491432375002,-1, 3, -1, 1, 3, 4, -1, -3
1491432375009,4, 2, 0, -2, 6, -1, 2, 75
1491432375024,-1, 2, 1, 0, 4, 0, -3, -11
1491432375031,0, 0, 0, 0, -5, -1, 4, -16
1491432375047,-2, -3, -3, 1, 2, 1, 4, 10
1491432375054,4, 1, 2, -2, -6, -3, -2, -7
1491432375068,-2, 2, 0, -1, -1, 1, -4, -1
1491432375069,-2, 1, -1, 2, -9, -6, -5, -18
1491432375084,-5, -6, -1, -6, -4, -3, -6, -17
1491432375091,1, 1, 0, -1, 9, -1, -3, -1
1491432375106,1, -2, -3, 3, 4, -2, -14, 0
1491432375113,-16, 10, 6, 1, -1, -6, -7, -52
1491432375122,-3, -1, 1, -1, 0, 1, 6, -9
1491432375129,0, 0, -4, -3, -2, 0, -6, 5
1491432375130,3, -4, 1, -2, -4, -1, 1, 29
1491432375144,-2, 3, 3, 0, 1, 3, 0, -4
1491432375151,0, -6, -3, -3, -1, 1, 4, 0
1491432375166,3, 1, -3, 1, -1, 1, -3, 2
1491432375167,-1, -1, -3, 0, -4, -1, -2, 8
1491432375174,4, -4, 0, -3, -6, -2, 1, -2
1491432375183,2, -1, 5, 5, 1, 0, 0, -5
1491432375189,-1, 0, -1, -1, 1, 2, 1, -4
1491432375204,3, 2, -3, -3, 3, -2, 8, 8
1491432375211,5, -5, -6, -4, 1, 4, 5, 18
1491432375227,2, 2, 1, -5, -10, 0, 2, 6
1491432375234,-4, -2, -5, -1, 2, 1, -7, -5
1491432375242,-3, -6, -1, -2, -4, -2, -4, 2
1491432375249,-7, -5, 1, -2, -2, -4, -2, 4
1491432375264,2, 4, 0, 1, -1, -2, -2, 14
1491432375272,6, -2, -1, 2, -1, -4, 1, 5
1491432375286,-3, 2, -2, -1, -2, 0, 0, -4
1491432375294,5, 4, 1, -3, -8, -4, -6, -28
1491432375301,-4, 0, -2, -3, -7, -2, 2, 3
1491432375302,-1, -7, -3, -4, 11, -4, -2, -4
1491432375308,-2, -2, 1, 4, 8, 0, -4, -6
1491432375309,-8, -7, -4, 0, -2, 0, 0, -11
1491432375324,-5, -3, -3, -1, -1, 1, 2, -2
1491432375331,0, -1, 2, 1, 14, 5, 3, 6
1491432375347,1, 0, -3, 1, -3, -1, 5, 1
1491432375354,4, 1, 3, 0, -5, -2, 1, -9
1491432375361,3, 12, 4, 2, 1, -5, -2, 31
1491432375362,-4, -7, -1, 0, 1, -2, -1, -10
1491432375368,1, -5, -3, -3, 1, 1, 1, 6
1491432375384,-1, 2, -3, -1, -2, -3, 1, -4
1491432375394,-10, -8, -2, 2, -4, -4, -4, -12
1491432375408,-2, 0, -1, -1, -9, -1, -6, 6
1491432375413,9, 12, 0, -1, 19, 10, 5, 35
1491432375422,-6, -12, -2, -4, -2, -2, 5, 0
1491432375429,1, 1, 0, -3, -10, -7, -2, -5
1491432375444,3, -1, -6, -3, -2, 0, -5, 14
1491432375451,-1, 1, 6, 4, -7, -4, -4, -46
1491432375467,-1, -3, 0, -2, -6, 1, 4, -7
1491432375474,-6, -4, -7, -1, -1, -3, -3, 4
1491432375481,-2, 2, 1, 1, 5, 3, 1, -15
1491432375489,-4, 8, 2, 1, 0, 0, -6, -6
1491432375504,4, -2, 0, 0, 2, -1, -4, 23
1491432375511,-2, -10, -6, -5, -11, 6, 3, -7
1491432375526,-5, 4, 0, 1, 28, 1, -1, -31
1491432375534,2, 0, 0, -1, 12, -11, -4, 18
1491432375541,3, 0, -2, -3, -10, -4, -1, 8
1491432375548,0, -6, -2, -7, -10, 2, 1, 1
1491432375564,-19, 0, 2, 2, 1, 2, -3, -69
1491432375571,1, 3, 3, 1, -6, 0, 1, 18
1491432375586,-6, -3, -1, -4, 5, -2, 1, -10
1491432375587,1, -4, 2, 3, -5, -2, -3, 4
1491432375594,-5, 1, -2, -2, 1, -1, -1, -6
1491432375603,6, 1, -1, 5, -6, 0, -12, 26
1491432375616,0, 0, -2, -3, -2, -4, -2, 17
1491432375624,7, 7, 0, -1, -7, -3, -4, -1
1491432375631,-3, -5, 1, -2, 3, 2, -10, -6
1491432375647,2, 1, 0, -8, -3, 0, -1, 0
1491432375654,-1, -6, -6, -8, 1, 2, 5, 5
1491432375661,-5, -5, -2, 7, 11, -4, -1, 22
1491432375662,2, -2, 0, 3, 2, -2, -2, 7
1491432375676,7, 2, 2, -6, 1, 1, -1, 9
1491432375677,-1, -5, -5, -4, -11, -2, 3, 0
1491432375685,8, -3, -5, -3, -10, -2, 6, 18
1491432375691,4, 6, 6, 7, 0, 1, 1, -1
1491432375706,-10, -9, -5, -5, -1, 1, -3, -9
1491432375707,-2, 6, 5, 2, -2, -1, -5, -2
1491432375713,2, -2, -5, 4, 3, 1, 4, -10
1491432375722,-5, -2, -3, -7, 7, -4, 0, 5
1491432375736,3, -3, -4, -2, -3, -5, -5, 11
1491432375744,-4, -7, -1, -1, -7, 1, -8, -2
1491432375751,11, -4, -1, -1, -3, -3, -2, 32
1491432375766,0, -15, -6, 2, 2, 0, -1, -8
1491432375767,5, 25, 7, 0, -3, -7, -2, -3
1491432375774,-7, -4, 0, -2, -4, 0, 0, -8
1491432375789,-3, -8, 1, -3, -8, -1, 6, 5
1491432375796,-1, 3, 3, -3, 10, 2, -1, -17
1491432375804,-2, -6, 1, 7, 8, 3, 3, -1
1491432375811,-5, -3, -6, 1, 2, 3, -5, -1
1491432375826,2, 5, 1, -1, 4, 5, 4, 5
1491432375827,1, -8, -2, -1, -5, -1, 1, 13
1491432375834,-4, -1, 2, 25, 2, -4, -2, -14
1491432375842,-6, -6, -4, -3, 0, 1, 5, 12
1491432375856,-2, 0, -6, -9, -8, -3, 12, -13
1491432375864,-4, -3, -6, -3, -15, -3, 0, 0
1491432375871,-7, -20, -6, -2, 11, 5, 5, -15
1491432375886,7, -11, -11, -9, -1, 3, 4, 1
1491432375894,-8, -2, -2, 0, -4, -4, -2, 17
1491432375901,-13, -4, -4, -8, -5, -1, -5, -17
1491432375916,5, -1, -1, -3, 0, -1, -8, -1
1491432375924,-1, 1, -4, 1, -3, -9, -3, -7
1491432375931,6, 33, 13, 0, -10, -5, -2, 20
1491432375948,-1, -8, -2, 2, 13, 7, 7, 3
1491432375954,4, -11, -4, -8, -6, -5, -4, -7
1491432375961,-9, 1, 2, 2, -4, -5, -6, -17
1491432375962,-12, 3, 1, -9, 2, 1, 3, 11
1491432375976,-4, 1, 0, -3, 2, -2, -17, -8
1491432375984,14, -4, 2, -1, 0, -2, -7, -7
1491432375991,-7, -4, -1, -8, -5, 5, 2, -7
1491432376006,-9, -5, -5, -1, 18, -2, -6, -2
1491432376014,5, 4, 0, 0, 1, -4, -11, 11
1491432376022,4, 7, 3, 6, -9, 1, -1, -11
1491432376036,-3, -4, -4, -2, -6, -1, 7, -6
1491432376051,-5, -1, 1, -4, 3, -4, -1, -1
1491432376052,-4, 1, 3, 1, 1, 7, 5, 1
1491432376075,-1, -2, -4, 2, -8, -8, 1, -9
1491432376081,3, 9, 7, -2, -8, 7, -2, -2
1491432376096,5, -5, -1, -3, -4, 0, -1, 5
1491432376106,-3, -9, -6, 3, -1, 2, -2, -8
1491432376111,1, -2, 2, 15, -8, 0, 0, -13
1491432376126,-1, -4, -1, 13, 6, -1, -1, 6
1491432376127,0, 0, -1, 13, 5, 1, -1, -7
1491432376134,7, -4, -2, -17, 5, 1, 5, 5
1491432376141,-2, -4, 0, 10, -3, -6, -4, 3
1491432376156,-12, -5, -3, -5, -3, -10, -6, -7
1491432376164,-1, 1, -1, 2, 4, 3, 1, 1
1491432376165,-1, 2, 0, -6, 0, -2, -2, -24
1491432376171,-17, -1, 0, 9, 4, 2, -7, -18
1491432376186,6, -1, -3, -2, -5, 0, -6, -16
1491432376187,-10, -5, -3, -46, -15, -1, -3, -9
1491432376194,4, -1, -2, 20, 8, 12, 15, 16
1491432376201,4, -5, -6, -14, -7, 2, -7, 0
1491432376216,-20, -5, -1, -11, -5, -3, -5, -11
1491432376224,-7, -12, -7, 7, 1, -3, 0, 0
1491432376231,23, -1, -4, 0, 3, -12, -10, -13
1491432376247,-36, -4, -4, 1, -13, -5, -3, -6
1491432376253,-6, -2, -3, -2, 5, 1, 4, -2
1491432376254,-5, 3, 1, 1, 19, 6, 3, -2
1491432376262,12, 0, 3, -5, -6, 1, -1, -1
1491432376277,-8, -7, -4, -20, -13, -1, 5, 9
1491432376284,2, -4, -3, -6, 1, 4, 8, -25
1491432376299,35, 6, 2, -27, -1, -5, 11, 24
1491432376308,4, -3, 2, 23, 11, -16, -6, 5
1491432376314,-22, 2, 4, -4, 3, -1, -8, -16
1491432376323,13, -2, -2, -4, -5, 3, 3, 4
1491432376336,-12, -9, -5, 12, -12, 1, -4, 14
1491432376344,-5, 5, 1, 14, -2, -2, 0, -16
1491432376351,6, 2, -2, -25, -12, -2, -2, -11
1491432376368,5, -5, -4, 1, -7, -2, 4, 7
1491432376373,1, 13, 7, -21, 0, 0, -8, 0
1491432376374,1, 0, -2, -5, 0, 0, 1, 10
1491432376381,5, 1, 1, 11, 14, -4, 2, 12
1491432376396,-11, 1, -3, -2, -8, 3, 1, -14
1491432376405,-7, 4, 2, 17, 7, 11, -1, -8
1491432376411,-15, 0, -2, 29, 15, 7, 0, 3
1491432376428,-5, 3, 2, -2, 5, 0, -7, 25
1491432376437,3, 3, 1, 23, 10, 2, 0, 2
1491432376443,16, -10, -6, 12, -4, -1, -1, -11
1491432376456,-2, -4, -3, -3, 6, -3, -5, -9
1491432376464,5, -7, -5, -19, -5, 5, 5, 0
1491432376471,-2, -2, 2, -14, -1, -2, 1, -15
1491432376489,-7, 1, 0, -28, -14, -11, -11, -3
1491432376500,8, -1, -2, -17, -7, -2, 4, 17
1491432376502,1, 2, -1, -20, -6, -10, -7, 16
1491432376516,0, -10, -5, 13, -6, -5, 0, -8
1491432376531,2, 3, 4, 14, 9, -2, 6, -13
1491432376539,-2, -8, -2, 12, 10, -1, -5, -5
1491432376548,-6, -1, 5, 2, 5, 3, 0, 4
1491432376553,-16, -7, -6, -16, -11, -3, -4, -23
1491432376554,-9, -6, -2, 2, 2, -1, -8, -7
1491432376569,-11, -1, -4, -38, -8, -4, -2, -1
1491432376576,10, -2, -2, -24, -8, -8, -8, -8
1491432376585,9, -4, -1, -10, 9, 8, -2, -13
1491432376600,1, 6, 2, 11, -2, 1, 5, 12
1491432376609,1, -3, -4, 7, -3, 7, 7, 6
1491432376615,17, 0, 0, 19, 16, 4, -3, 11
1491432376628,11, -4, -6, -11, -7, -9, -2, -13
1491432376629,13, 9, 3, 17, 0, 0, 4, 9
1491432376636,-8, 2, 4, 30, 0, 1, 2, 3
1491432376644,-5, -2, 1, 4, 4, 0, -1, -4
1491432376659,-23, -6, 2, 23, 2, 3, 2, -7
1491432376666,-14, -7, -2, 8, 3, 0, -7, -26
1491432376674,1, -10, -10, -17, -14, -4, -7, -32
1491432376689,33, 7, 2, 0, -1, -2, -6, -2
1491432376703,-2, 5, 6, 16, -11, -3, 5, 9
1491432376706,-9, -11, -6, -25, -9, -1, 4, -3
1491432376718,1, 0, 0, 9, 2, -11, -3, 0
1491432376719,9, 2, 3, 13, 9, 3, 0, 8
1491432376726,-5, -5, -5, -20, -9, 6, 5, 3
1491432376727,-5, 4, 0, 15, 4, -12, -10, 5
1491432376735,0, 0, -3, -26, -7, -3, 2, 8
1491432376749,-4, -4, -5, 6, 2, 3, 3, 4
1491432376756,-7, -1, 2, -42, -21, -10, -6, 1
1491432376764,-4, -2, -5, -21, -13, 0, -1, 3
1491432376779,1, 0, 0, -21, -12, -2, -12, -2
1491432376786,-7, 0, 3, 27, 10, 4, 2, 5
1491432376794,2, 12, 3, 0, -1, 0, 1, 10
1491432376808,-9, -15, -9, -17, -16, -5, -7, -19
1491432376809,12, 12, 12, 14, 6, 1, 3, 25
1491432376816,14, 2, -2, 15, 12, 2, 2, 0
1491432376824,-29, -8, -1, -3, -2, -7, -8, -17
1491432376840,-7, 0, 2, 58, 11, 0, -2, 4
1491432376846,7, 1, 1, -6, 4, 1, 1, 6
1491432376847,2, -8, -5, -9, 2, -2, 2, -8
1491432376854,-13, -15, -10, -24, -5, 0, -2, -27
1491432376869,2, -15, -11, 4, 1, 1, 2, 15
1491432376876,0, -24, -12, -13, -2, -2, -8, -26
1491432376884,25, -15, -7, -8, -6, 1, 3, 9
1491432376898,0, 6, 6, 16, 5, 3, 0, -9
1491432376899,-17, 7, 2, -10, -1, 2, 1, -11
1491432376906,0, -48, -19, -12, -6, -4, -2, 17
1491432376907,-23, 47, 28, 9, 3, 2, -2, -8
1491432376913,11, -3, -2, -7, 0, -5, 2, 49
1491432376928,8, 21, 8, 4, 2, -1, 1, 1
1491432376937,16, 7, -1, -9, 2, 3, 5, 71
1491432376944,5, -19, -6, -5, -3, 1, -3, 7
1491432376959,-9, -2, -3, -3, 0, 0, 5, -22
1491432376966,-7, 1, -1, 0, -2, -8, -11, -39
1491432376974,0, -3, -1, -1, -3, 1, 1, -8
1491432376989,11, -11, -9, 2, -2, 1, 0, -10
1491432376996,7, 5, 3, 16, 6, 1, 2, -3
1491432377005,6, -10, -7, -11, -2, 1, 1, 4
1491432377019,4, 5, 1, -10, -3, 1, 3, -2
1491432377029,-7, -13, -5, 6, 1, 2, 2, 1
1491432377034,-11, -5, -3, -9, -3, -3, -4, -41
1491432377048,17, -6, -4, -1, -6, -4, -4, -5
1491432377049,-18, -9, -6, -1, 3, -6, 0, -1
1491432377056,11, -11, -5, -4, -4, -1, -2, -10
1491432377065,8, 5, 5, 1, 1, 1, 0, 19
1491432377078,-5, -1, -1, 1, -1, -1, 2, 0
1491432377079,-5, -2, -3, 1, 2, -3, -5, 3
1491432377087,-9, -7, -4, -1, -3, 0, 1, -7
1491432377093,2, 7, 0, 4, 2, -1, -2, 1
1491432377094,-2, 1, 3, -1, -1, -1, -2, -3
1491432377108,0, -3, -3, -7, -4, -1, 2, 4
1491432377109,-3, 2, -1, -4, -1, 0, -4, -3
1491432377116,2, 3, 2, 8, -2, -2, 0, 5
1491432377125,-2, -4, -3, -1, 0, -1, 2, -9
1491432377139,-2, 5, 0, -8, 0, 1, 3, -2
1491432377154,-6, 1, 1, 6, 0, 1, 2, 2
1491432377155,-7, 1, 0, 0, -1, -3, -7, -10
1491432377168,4, -1, -3, -9, -5, -1, 0, 43
1491432377176,27, 0, -2, -1, 4, 3, 1, 2
1491432377184,-8, -8, -6, -5, -4, -3, -1, -20
1491432377199,-4, -9, -4, -1, -2, -3, -2, 12
1491432377206,5, -11, -1, 2, 0, -1, 1, -2
1491432377213,16, 1, -4, -1, -2, -1, 1, 7
1491432377214,-11, -8, 1, -4, 0, 0, 1, -23
1491432377228,13, 3, -3, -1, -2, -2, -2, 5
1491432377229,-8, 2, -7, 2, 0, 2, 0, -6
1491432377237,-2, 5, 5, 0, -1, 0, -5, 1
1491432377244,-1, 2, -1, -1, -2, 1, -2, 7
1491432377258,2, 1, 1, -4, -1, -1, 0, 4
1491432377259,-2, 6, -1, 0, -2, 1, 4, 4
1491432377268,1, 5, 0, 1, -2, 1, -2, -9
1491432377274,-2, 8, 4, 3, 1, -5, -2, -1
1491432377289,5, 8, 1, -2, -1, -3, -4, -6
1491432377296,0, -3, -3, -1, -1, -1, 0, 3
1491432377304,0, 1, -3, -1, -1, -4, -4, -5
1491432377318,-4, -8, -1, -3, 1, -3, 0, -7
1491432377319,-4, -4, 0, -2, -3, -2, -2, 3
1491432377340,-2, -15, -4, 0, 0, -1, -3, -2
1491432377341,-3, -6, -5, -2, 1, 2, 0, 6
1491432377363,-1, 3, 2, 0, 1, 3, 0, -10
1491432377364,-3, -11, -4, -3, -1, -2, -1, -2
1491432377365,0, -4, -4, -2, -4, -4, 1, -7
1491432377378,2, 1, -1, 0, -1, 0, 0, 5
1491432377379,-2, -2, 1, -3, -3, -2, -2, -12
1491432377387,-3, -13, 3, 1, 0, 0, 1, 1
1491432377394,1, 2, -4, -1, 0, 1, 4, 11
1491432377409,-1, -2, 0, -2, 4, -3, 0, 4
1491432377423,-2, -6, 0, 2, 0, -2, -1, 0
1491432377425,-6, -1, -2, -1, -1, 0, -1, 0
1491432377445,1, 4, -1, -1, -3, 3, -1, -2
1491432377446,-3, -14, -5, -2, -5, 0, -4, -3
1491432377448,7, -1, 0, 0, 1, -3, -4, -13
1491432377468,-4, -3, 2, -2, -3, -1, -2, -5
1491432377470,4, 19, 5, 2, 1, 4, 0, -2
1491432377476,-1, 8, 1, -2, -1, -3, 0, 11
1491432377493,-1, 5, -2, -1, -2, 1, 1, 2
1491432377499,4, 5, 1, 1, 2, 3, 2, 3
1491432377506,-4, -9, -7, -2, -2, -4, 0, 6
1491432377520,-1, 7, 0, -2, -1, -6, -2, -6
1491432377521,-1, -4, -4, -1, 0, -1, -1, -4
1491432377528,-2, 4, 0, -1, -2, -2, -2, -6
1491432377537,-4, 6, 1, 2, -1, -4, -4, -6
1491432377551,1, -4, -3, -2, -3, 0, 2, 3
1491432377558,2, -4, -4, -2, -1, 3, 0, 7
1491432377567,-6, -16, -3, 0, 1, -2, -5, 8
1491432377580,-4, -3, 1, -1, -2, -2, -3, -21
1491432377589,-2, -1, 2, -2, -2, -3, 5, -2
1491432377596,-1, 1, -1, 0, -1, -2, 0, -6
1491432377618,-5, -5, -3, -3, 1, 2, -2, 0
1491432377619,-1, 1, 2, -1, 1, 2, -2, -2
1491432377626,4, 11, 0, 1, -2, 0, 1, 3
1491432377640,-3, -9, -6, -7, -3, -2, -3, 1
1491432377649,1, -2, 1, 0, -1, -2, -2, -1
1491432377657,-2, 0, 1, -1, -1, 3, 1, -3
1491432377671,0, -1, 1, 0, 0, -2, 0, -6
1491432377678,3, -1, 3, 0, 2, -5, -1, 1
1491432377686,-4, -5, -1, -1, 0, 0, -2, -6
1491432377701,-3, -1, -2, 0, 2, 3, 3, 6
1491432377702,-2, -7, -2, -1, -2, 2, 1, -1
1491432377708,-3, 4, 0, -2, -1, -1, -7, -13
1491432377709,0, 2, 1, -1, 0, -1, 0, 3
1491432377716,4, 4, -6, 0, 1, 1, 1, 3
1491432377732,-1, -3, 4, 2, -3, -1, -1, 1
1491432377739,4, 10, -2, -1, -1, -4, 0, -3
1491432377740,-5, -6, -2, -2, -5, -4, -1, -11
1491432377746,4, 4, 2, -1, -2, -3, -2, 2
1491432377747,1, 6, -2, -1, -1, -4, -4, 1
1491432377760,0, 6, -3, 0, 0, 2, 1, 5
1491432377768,-1, -10, 0, 0, 2, -3, 2, -6
1491432377769,-6, -11, -3, -2, 1, 0, -6, -6
1491432377777,-1, 1, 3, -1, -4, 2, -2, 1
1491432377791,-3, -3, -3, 0, -3, 3, -1, 1
1491432377798,0, 5, 4, 2, 3, 1, -1, 3
1491432377807,-1, -5, -4, 0, -2, -2, 1, -1
1491432377820,2, -5, -3, -4, -1, -5, -2, 9
1491432377829,2, 2, 4, -1, 1, -1, -2, 0
1491432377836,-1, -3, -3, 0, -2, -3, -2, -2
1491432377851,-2, -12, 1, -1, -2, 0, 1, 2
1491432377859,-3, 0, 0, -9, -6, 3, -2, -2
1491432377867,-2, 4, -3, 0, -2, 2, 0, -18
1491432377880,0, 3, 3, 2, 1, -5, 1, -1
1491432377889,-1, 3, -2, -4, 1, -3, -2, 5
1491432377896,-3, 4, -3, -1, 1, -3, -2, -8
1491432377911,2, 2, 2, -1, -2, -1, 2, 4
1491432377918,2, 0, 1, 9, 0, -2, 4, 3
1491432377926,-1, -2, -2, 4, -1, 0, 0, 3
1491432377940,2, 1, -1, -3, 0, 1, 2, 1
1491432377948,1, -2, -4, -2, -6, -2, 4, -2
1491432377956,-3, -7, -5, -3, 7, -2, -3, -5
1491432377971,-2, 1, 0, -2, 3, 1, -3, -3
1491432377978,-2, -11, -4, -4, -2, 1, -3, 2
1491432377987,-3, 2, -1, -7, -6, -2, -2, 1
1491432377988,-1, 1, 0, 2, -2, -1, -4, 1
1491432378000,3, 1, 3, 10, -2, -2, -3, 0
1491432378009,0, 6, 2, -7, -3, -2, 0, 2
1491432378023,-1, -4, -6, -9, -7, -3, -4, -3
1491432378031,1, 0, 2, 1, 5, 1, -2, 2
1491432378039,0, -3, -2, -1, 0, 2, 1, 2
1491432378046,1, 2, -2, -3, 0, 3, 2, 2
1491432378060,-1, 3, 3, 2, -2, -1, -3, 0
1491432378068,0, -6, -2, -2, -2, 1, -1, -2
1491432378077,0, -4, -1, 1, 2, 2, 3, -1
1491432378098,-2, 0, -5, 1, 3, -3, -3, -1
1491432378099,-3, -8, -1, -2, -2, -1, 0, -1
1491432378106,-3, -7, -2, -3, -4, -2, -1, -1
1491432378120,0, 4, 1, 5, 3, -3, -4, -4
1491432378128,-1, 1, 2, 1, -3, -4, -3, -5
1491432378136,-4, -3, -5, -12, -1, -1, 2, -1
1491432378151,1, -4, -1, -4, -5, 0, 1, 2
1491432378158,-1, -6, -3, -6, -2, 0, 1, -15
1491432378173,-3, -7, -6, -1, 0, 0, -3, -1
1491432378180,2, 0, 1, 5, -1, 4, 2, 7
1491432378189,-3, -5, -4, -2, 0, -1, 2, -3
1491432378196,4, 4, 4, 1, 1, -2, -2, 4
1491432378211,1, -13, -6, -4, -3, -1, 1, 4
1491432378218,-1, 2, 1, -2, -4, -2, 2, -2
1491432378234,0, 2, 2, 3, 3, -4, 1, -1
1491432378240,-1, -4, -1, -2, -3, -1, -8, -18
1491432378248,0, -2, -2, -6, 3, -1, 1, 7
1491432378249,1, 4, -1, -2, -2, 1, 1, -1
1491432378256,-1, -4, -4, 0, 0, 3, 3, 7
1491432378271,1, 4, 3, 2, 0, 0, 0, -2
1491432378278,-3, -7, -5, -3, -1, -5, -2, 3
1491432378287,1, 3, 4, 2, 1, -2, -2, 0
1491432378300,-1, -2, -3, 0, 1, -6, 2, -1
1491432378308,-3, -2, 1, 0, -3, -1, -2, 3
1491432378316,0, 0, 3, 1, 3, 4, -4, 4
1491432378331,-4, -1, -2, -3, -1, 1, -4, -1
1491432378339,-4, 2, -1, -1, -3, -3, -1, -2
1491432378348,1, 3, -2, -3, -3, 1, 4, 5
1491432378361,-3, 3, 5, 5, 1, 2, -3, 5
1491432378368,-4, -9, -6, -3, 3, -5, -2, -12
1491432378383,1, 4, 2, 4, 5, 0, 1, 7
1491432378391,4, -10, -3, -5, -2, 1, 5, 30
1491432378405,-1, -1, 0, -1, -5, -2, -1, -7
1491432378413,-1, 4, 3, 0, 1, -1, -4, -2
1491432378414,-1, -1, 0, -1, -5, 0, -3, -7
1491432378428,-1, -5, -6, -5, -1, 1, -4, 4
1491432378429,10, 11, 7, 4, 0, -1, 2, 21
1491432378430,-3, 2, 1, 2, 7, -4, -1, -7
1491432378450,-3, -2, -2, 0, -2, -4, -1, -5
1491432378454,0, 3, 5, 3, 1, 3, -1, -2
1491432378458,1, 5, -2, 1, 2, 2, 1, -3
1491432378459,-1, -3, -4, -7, -4, 0, -2, -1
1491432378473,-1, 2, 5, 6, 2, -3, -1, -2
1491432378481,0, -5, -2, -1, -5, 1, 3, 5
1491432378489,2, 1, 0, -2, -4, -2, -4, -10
1491432378503,0, 1, 1, 0, -1, 1, -5, -12
1491432378511,0, 3, -2, -2, 1, 0, -7, -2
1491432378512,-3, -6, -8, -6, -2, -2, 1, 1
1491432378518,1, 1, 0, -3, 0, -1, 3, -5
1491432378534,3, 0, 3, 4, 3, -1, -3, 24
1491432378548,0, -8, -1, 1, 4, 2, 6, 7
1491432378549,-2, -4, 0, 2, 15, 2, 1, -10
1491432378563,0, -6, -3, -4, -5, -2, 0, 7
1491432378571,1, -1, -5, -8, -17, -4, 2, 4
1491432378578,-2, -7, -2, 1, 2, -1, -4, 3
1491432378579,0, 9, 1, -1, 5, 0, 2, -1
1491432378600,-5, 0, -1, 1, -9, -3, -1, 12
1491432378601,-1, -2, -2, -13, 0, 5, 3, 12
1491432378616,-3, -5, -3, -4, 4, -4, -1, 4
1491432378630,4, -1, -5, 5, 8, -8, 1, 11
1491432378632,3, 1, -1, -3, -1, 2, 0, -8
1491432378638,-4, -1, 1, 3, -3, 2, -5, -15
1491432378653,-5, -5, -3, 1, -5, 1, -9, -15
1491432378660,-1, 3, -2, 0, 2, 3, -1, -4
1491432378668,-3, -3, -3, -5, -1, -1, -4, -16
1491432378683,-4, -5, -2, -1, -4, -5, -5, -13
1491432378691,2, 13, 9, 7, 2, -2, 3, 3
1491432378698,-2, -1, 0, 0, -2, -5, 1, 2
1491432378722,-3, -3, -2, -5, -1, -1, 2, 4
1491432378723,-1, 2, 4, 0, -2, 2, 0, 2
1491432378728,-1, 4, 5, 4, 9, 2, 1, -9
1491432378743,-3, -4, -1, -4, -4, -5, -6, 12
1491432378751,0, -3, -3, 0, -6, 1, 1, -4
1491432378758,-1, -3, 0, 1, 0, 0, -4, -6
1491432378774,-1, 1, -3, 0, 2, 0, -1, 6
1491432378781,-1, 3, -1, 0, 0, -3, -2, -8
1491432378790,0, -9, -5, -2, -14, 1, 4, -7
1491432378803,0, 0, -1, 1, -6, 2, -1, -1
1491432378811,-2, -3, -6, -5, -4, -2, -3, -3
1491432378819,-4, 0, -1, -5, -3, -2, -8, -9
1491432378833,0, -1, 2, -6, -2, -6, -4, -12
1491432378842,0, 1, -3, -1, 3, 1, 2, -1
1491432378850,-3, -3, -4, 3, 4, -1, -3, 1
1491432378863,1, -3, 2, 9, -1, -2, 2, 0
1491432378871,2, 1, 2, 14, 4, 1, 5, 3
1491432378879,0, -4, -1, -2, -7, 0, -1, -1
1491432378893,-2, 2, 3, 0, 2, -2, -1, 2
1491432378894,1, -1, 0, -7, -1, 1, -1, 1
1491432378901,-3, -7, -4, -13, 0, 0, -1, -4
1491432378909,-2, 1, 4, 23, 11, 2, -7, -2
1491432378923,2, 0, 1, -8, -1, 1, 2, 2
1491432378931,-3, -3, -4, -10, -3, 0, 5, -1
1491432378939,-4, -3, -1, -12, 7, -2, 0, -2
1491432378954,0, 2, -2, -18, -1, 1, 0, 1
1491432378961,-2, 0, -2, -14, -8, -4, -1, 2
1491432378970,1, -3, 0, 26, 7, 0, -3, -2
1491432378983,-1, 5, -3, 1, -3, -1, -3, -1
1491432378991,-15, -6, -3, -16, -12, -7, -2, -5
1491432379000,3, 4, 0, 22, 4, 0, 0, 2
1491432379014,7, 1, 1, -4, -4, 0, -1, 2
1491432379021,3, 3, -3, -26, -6, -1, -2, 2
1491432379022,-8, 0, 0, -4, -9, 2, 2, -3
1491432379029,-2, -9, -8, -20, -2, 2, 3, 2
1491432379043,6, -7, -1, 17, 0, -4, 2, 2
1491432379051,3, -7, -1, 15, 6, -6, -2, -1
1491432379058,-4, -2, -2, -8, -8, -1, -1, -3
1491432379075,-8, 2, -1, -8, -2, 2, -1, -1
1491432379081,2, -1, 6, -3, -1, -3, 1, -2
1491432379089,2, 12, 8, -1, -3, -2, -1, -4
1491432379103,-1, -6, 1, 58, 24, 4, 0, 0
1491432379111,-3, -17, -2, 12, -4, -3, 1, 2
1491432379118,1, 12, 3, -40, -11, -2, 2, 0
1491432379119,-4, -4, -5, -14, -12, -3, -4, 0
1491432379134,11, 22, 0, -26, -1, 0, -2, -2
1491432379141,3, 8, -2, -23, -3, 0, 0, -1
1491432379149,4, -4, -4, -6, -4, -1, -2, 1
1491432379163,8, 12, 0, -6, 1, 5, 1, 5
1491432379171,-7, 7, 9, -26, -7, -7, -8, -17
1491432379172,-2, -4, -1, 23, 3, -3, -1, -3
1491432379179,6, -2, 4, -1, 2, 0, -1, 2
1491432379194,5, 7, 3, 17, 6, 2, 3, 2
1491432379202,-9, -4, -7, -2, 0, -5, -2, -4
1491432379210,-2, 2, 2, -8, -6, 1, -4, -5
1491432379223,-5, -3, 2, 0, 2, 1, -1, -4
1491432379231,-7, -10, 1, 0, 1, -1, 1, 8
1491432379239,2, 3, 0, -7, -7, -2, -3, -5
1491432379253,-1, -14, -8, -7, -1, -3, -1, -3
1491432379261,-2, 1, -8, -4, 0, -2, -1, -2
1491432379270,0, -5, -4, -4, -6, -3, -1, -2
1491432379283,-8, -12, -11, -15, -5, -5, -2, -1
1491432379291,0, -9, -10, -12, -13, -4, 1, 1
1491432379299,0, 1, 2, -3, 10, 2, 0, -5
1491432379313,-5, 5, 5, 14, 2, -2, -7, -9
1491432379321,5, 9, 4, 6, -3, -1, 0, 2
1491432379336,1, -3, -2, 2, 2, 2, -1, 0
1491432379343,2, -1, 5, 3, -3, -1, -5, 1
1491432379351,2, 2, -3, -18, -1, -2, -1, -1
1491432379365,-1, -12, -4, 16, 6, 0, 3, 1
1491432379373,-2, 9, 4, 0, 3, -1, -3, -10
1491432379374,-2, 0, -1, -2, -3, 3, 3, 3
1491432379381,1, -5, -3, 0, -10, 2, 0, -1
1491432379396,-4, 4, 3, -1, -3, -2, 0, 1
1491432379402,-2, -4, 1, -16, -21, -2, -2, 6
1491432379411,2, 1, -3, -4, -19, -6, -3, -1
1491432379425,10, -2, -1, 6, 28, 6, 3, 1
1491432379433,-4, 0, -1, 8, -2, 1, 2, 1
1491432379434,-7, -3, -6, -5, -1, -2, -4, -5
1491432379442,0, 6, 2, 0, -16, -4, 0, -1
1491432379443,2, 4, 2, -1, -1, -6, 0, 0
1491432379456,-7, 8, -2, 9, 7, 0, -1, -4
1491432379462,-11, -4, 2, -2, 2, 0, 0, -1
1491432379471,1, 1, 4, 1, 0, -1, 0, 0
1491432379485,-5, -6, 0, 2, 0, -1, -1, -2
1491432379495,3, -17, -3, -2, 8, -1, 3, 3
1491432379501,-6, -7, -3, 0, -4, -5, -6, -14
1491432379516,-3, -4, 3, 0, 19, -1, -9, -5
1491432379522,4, -1, -3, 6, 18, 6, 3, -2
1491432379523,-5, 2, -3, -3, -3, -4, -3, 6
1491432379531,3, 7, 8, 2, -5, 4, 1, 6
1491432379545,4, -5, -4, 1, 1, 0, -4, -5
1491432379553,-12, -6, -4, -3, -6, -1, 1, 6
1491432379561,-14, 1, 1, -3, -2, 0, -2, -14
1491432379576,10, -4, -1, 0, -1, 0, 0, -12
1491432379583,-2, -8, -5, 1, -8, -4, -2, -5
1491432379591,2, -8, -5, 0, 4, 1, 0, -3
1491432379605,12, 4, 1, -1, -3, 3, 5, 8
1491432379613,8, -1, -1, -2, -1, -3, -2, -10
1491432379621,-14, -12, -4, -4, -5, -3, -2, 28
1491432379636,-9, 0, -5, -6, 0, 1, -3, 19
1491432379642,2, 12, 5, 2, 3, 3, 6, 18
1491432379651,3, 0, -5, -6, -6, -5, 2, 20
1491432379665,4, -3, 2, -1, 0, -1, 2, -4
1491432379674,2, 7, 3, 3, 2, 2, 2, 9
1491432379681,-12, -5, -4, -2, -6, 1, -16, 0
1491432379696,-2, 1, 1, -1, -3, -2, -1, -12
1491432379703,-2, 3, -1, 0, 13, 2, 8, -12
1491432379711,-2, -10, -5, -4, -5, 4, 1, -5
1491432379712,0, -6, 3, 2, 0, 0, -5, -7
1491432379725,-1, 5, 3, 1, -4, -2, 0, -23
1491432379734,-2, 0, 0, -1, 5, -2, -1, -2
1491432379741,4, 2, -3, 2, 0, -3, -5, -8
1491432379756,-2, -2, -2, 5, 6, 7, 7, -13
1491432379763,5, 0, -2, -1, -4, -1, 2, 27
1491432379771,1, 5, 0, -2, -15, 0, 3, -3
1491432379785,1, -1, -1, -5, -10, -6, 2, -9
1491432379794,-1, -2, 1, -3, 4, -3, -4, -11
1491432379801,-10, -5, -4, -1, -1, 1, -4, -2
1491432379816,-4, -3, -2, 0, -2, -2, -2, 0
1491432379822,-7, -6, -1, 2, 0, 1, 4, 3
1491432379823,5, 3, 1, 4, 3, 3, 2, -2
1491432379831,2, -6, -1, -1, -2, 1, -6, 7
1491432379845,-3, 0, -1, 0, 8, -2, 1, 25
1491432379854,-5, -1, -2, -6, -6, 0, 1, -5
1491432379868,5, 1, 2, -1, -4, -3, -7, 0
1491432379876,-1, -2, -3, -1, 12, -1, 8, 10
1491432379890,-2, -16, -5, -2, -3, -2, 2, -4
1491432379893,-4, -7, 3, 3, -6, -1, -2, -10
1491432379905,-2, -7, -5, -3, -5, -1, -6, -14
1491432379913,-1, 4, -2, 0, 1, -1, 3, 4
1491432379921,-1, 3, 0, -3, 0, 0, 1, -8
1491432379936,-6, 0, -1, 0, 5, -3, -5, -6
1491432379943,-4, 3, 0, 0, 2, -1, 1, -7
1491432379951,7, -3, -5, -3, -11, 1, -5, 5
1491432379973,4, -3, -2, 1, 6, 3, -3, 2
1491432379974,-3, -6, -5, -2, -15, -1, 0, -12
1491432379981,-2, -1, 3, 1, 2, -2, 4, -1
1491432379996,-5, -1, -2, -1, -3, -3, 2, -6
1491432380003,0, 8, 5, 2, -2, 6, 1, -1
1491432380011,-6, 5, 6, -1, -2, -7, -6, -24
1491432380025,3, -1, -3, -4, -2, -4, -4, 5
1491432380033,2, -3, -2, -1, -2, 1, -1, -5
1491432380041,2, -4, 4, 4, 7, -2, -2, -12
1491432380056,2, -2, -4, -2, 6, -3, -2, 11
1491432380062,-2, -9, -7, -1, -3, -2, 5, 7
1491432380071,-1, -3, -1, 1, 3, 2, 1, 6
1491432380086,-1, 1, 2, -1, 7, 3, 1, 10
1491432380094,-3, -4, -2, -3, -2, -2, 2, -11
1491432380109,-3, -4, -3, -1, -9, -3, -12, 0
1491432380110,0, 2, 2, 0, -6, -2, 7, 0
1491432380116,-2, 3, -1, 0, -2, -2, -5, -3
1491432380126,0, 2, 3, 0, -3, -2, -5, -6
1491432380132,-2, 2, 4, 3, -1, 1, 0, 18
1491432380146,-5, -2, -4, -5, -2, -1, -3, -3
1491432380154,1, -1, -2, -3, -2, 1, -4, 6
1491432380170,-7, -1, 1, 0, -4, -1, -3, -8
1491432380183,0, -4, -2, 2, 2, -4, -1, 6
1491432380184,0, -5, -5, -4, -6, -3, -15, 4
1491432380191,-2, -2, -1, -2, 3, 1, -2, 1
1491432380207,-7, 0, -3, 1, 1, 0, 2, -13
1491432380214,0, -2, -1, -4, 1, -1, -2, -7
1491432380230,2, 0, 2, -1, -2, 1, 2, -1
1491432380236,-1, 1, 2, 2, -6, -1, 2, -10
1491432380244,1, -9, 0, -1, -4, -1, -5, -4
1491432380258,-1, 3, -2, -2, 0, 4, 4, 2
1491432380267,-3, 1, -1, 0, -1, -2, 0, -5
1491432380274,20, 2, -2, 0, 2, -3, -2, -9
1491432380289,-10, -6, -3, -2, -2, -1, -2, -19
1491432380296,-3, -3, 0, 0, 6, 2, -11, -2
1491432380304,4, 1, -2, -3, -2, 1, 0, 4
1491432380318,-1, 0, 2, 7, -3, -2, -4, 5
1491432380326,-1, -2, -4, -4, -8, -7, -4, 4
1491432380335,-2, -4, -4, 0, 1, 0, 4, 11
1491432380349,4, 2, 0, 0, 2, 0, 3, 7
1491432380356,-4, -5, -3, -3, -1, -2, 0, -10
1491432380364,2, -4, -4, 0, 13, 3, -2, 7
1491432380378,-5, -3, -4, -2, -4, -2, -5, 5
1491432380387,-3, 2, 1, -3, -5, -3, 2, -9
1491432380394,2, 1, 0, -3, -2, 1, 10, 7
1491432380409,0, 4, -3, -3, -7, -5, -2, 4
1491432380418,-2, -5, 0, -1, 0, -1, 3, 7
1491432380424,3, -3, -2, -6, -3, 1, 4, 3
1491432380439,-2, -3, -2, -2, 0, 2, 1, 1
1491432380446,0, 0, 0, 5, -1, 2, 2, 7
1491432380454,-7, -4, -1, 3, 0, -4, -5, -7
1491432380469,-3, -3, -2, 2, 2, 4, 1, -1
1491432380476,-1, 2, -3, -1, -14, -6, -11, -11
1491432380484,1, -1, 2, -2, -2, -4, -3, -8
1491432380498,0, 0, -2, -11, -4, -1, 2, 5
1491432380506,1, -3, -1, 6, 1, -1, -2, 0
1491432380514,-6, 2, 8, 2, 2, 0, -3, -11
1491432380529,-2, 1, -1, 2, 4, -2, 1, 6
1491432380537,-5, -2, 0, 0, 0, -1, -6, 6
1491432380546,-1, 0, -2, -2, 0, 2, 10, 3
1491432380558,-3, 0, -3, -5, -1, -1, 2, -15
1491432380566,0, 0, -3, -2, 0, 1, 0, -5
1491432380573,2, -3, 0, -2, 4, 4, 7, 5
1491432380589,-17, -4, -1, -10, -1, 0, -2, -6
1491432380596,8, -2, -2, -7, -1, -5, -4, 3
1491432380604,2, -1, -4, -4, -1, -2, -6, 22
1491432380618,-1, -1, -1, -5, -9, -4, -3, 2
1491432380627,2, -1, 0, -5, -6, -10, -7, -8
1491432380633,4, -3, -6, 5, 4, -2, 0, -14
1491432380649,5, 6, 5, 9, 0, 0, -1, 0
1491432380656,-6, -4, -1, -2, -2, -2, -1, 0
1491432380664,3, -3, 0, 19, 7, 1, 1, -8
1491432380678,-1, 3, 1, 1, 3, 4, 3, 8
1491432380686,-2, -5, -1, 10, 8, 1, 2, 3
1491432380693,1, -1, -2, 4, 1, 1, 1, 10
1491432380710,-13, -3, -3, -5, -7, 1, -1, -7
1491432380716,-9, 2, 1, -4, -2, -1, -1, -14
1491432380725,5, 0, -3, -7, 0, -3, -1, 1
1491432380739,-4, -1, 0, 8, 0, 3, 0, 1
1491432380746,3, -4, 1, -10, -7, 1, -4, 0
1491432380762,5, 2, -2, -11, 8, 4, 8, 4
1491432380769,1, -2, -2, 1, -3, -2, 1, -1
1491432380776,0, -4, 1, 1, -3, -4, 3, 2
1491432380784,1, 4, -1, -4, -1, -2, -1, -6
1491432380798,0, -4, 1, -3, 0, 1, -5, -13
1491432380799,-1, -7, 0, 5, 1, -2, -6, 5
1491432380808,-5, -2, -1, -9, -5, 1, -2, -3
1491432380813,0, -5, -6, 4, -4, 1, 4, 4
1491432380814,0, -3, -3, 3, 5, 0, -3, 0
1491432380830,4, -1, -2, 6, 3, -1, 0, -4
1491432380836,-1, 1, 3, 20, 2, -1, -3, -7
1491432380845,-2, -2, 2, 18, 10, 0, -1, 3
1491432380858,9, -1, -1, -9, -7, -1, 1, 8
1491432380866,-2, -5, 1, -5, -5, 1, 3, 7
1491432380873,0, 0, -2, 7, -2, -1, 0, -6
1491432380875,-2, -1, -2, -6, -1, -2, -8, -6
1491432380892,-6, -1, -1, -7, 0, 0, 0, -5
1491432380897,-9, -3, -3, -4, -5, 1, -1, -6
1491432380904,1, -2, -1, -2, 1, 1, -3, 0
1491432380918,4, 0, -3, -4, -3, -4, 0, 4
1491432380927,-1, -3, -3, -12, -6, -2, -2, -16
1491432380933,2, 6, 4, 16, 4, -2, 3, 8
1491432380934,-1, 0, -4, -8, -7, -5, -4, -5
1491432380949,1, -4, -3, -3, -4, 0, 0, 1
1491432380956,-5, -1, 3, 1, 0, -1, 3, 5
1491432380964,4, 0, -2, 1, 0, -7, -3, 1
1491432380978,-14, -7, -1, -1, 1, -1, -3, -15
1491432380986,5, -1, 4, -1, -2, 4, 1, 18
1491432380993,2, -2, -2, -1, -4, 0, 0, 7
1491432381009,-6, -1, 1, 1, -4, -2, -5, -8
1491432381017,-1, -7, 1, -3, 1, -3, -1, -4
1491432381024,-1, -9, -11, -1, 0, 0, 1, 10
1491432381039,2, -11, -15, -4, -4, -3, -7, -64
1491432381047,-14, -14, -3, -1, -2, -4, -2, -8
1491432381053,15, 18, -1, -3, 0, 0, 1, -3
1491432381054,-2, -7, -1, 2, 1, 3, 3, 22
1491432381069,-2, 4, 0, -3, -3, -1, -4, -13
1491432381076,5, 24, 5, 3, 2, 1, -2, -6
1491432381091,4, 9, 5, 3, 0, -3, 3, 4
1491432381098,2, -1, 3, 3, -1, -4, -2, 8
1491432381106,4, 7, 0, 0, -2, 0, -1, -1
1491432381113,-13, -7, 2, 0, -3, -1, 0, 4
1491432381129,-6, 4, 5, -1, 0, 1, -5, -4
1491432381136,1, -1, 0, -3, -5, 3, 0, 1
1491432381151,-4, 10, -3, -3, 1, -3, 1, -5
1491432381158,-1, 7, 4, 3, 5, -2, 0, 14
1491432381174,-1, -9, 1, 0, -6, -1, -1, -6
1491432381182,8, 9, 6, 2, -2, -5, 0, -11
1491432381196,17, -7, -1, 0, 0, -3, -6, 6
1491432381197,6, -6, -4, -3, 1, 2, 2, 11
1491432381211,-2, 5, -2, -3, -2, -2, 2, -15
1491432381218,-1, -9, -3, 0, 2, 1, -3, -3
1491432381227,16, 0, -4, 0, 1, -1, -1, -3
1491432381241,2, 1, -2, -3, -1, 0, -1, 22
1491432381249,-7, 6, 3, 1, -1, -4, 0, -5
1491432381256,-2, 2, -1, 0, 0, 1, 0, -7
1491432381271,1, 0, -2, -3, -1, 2, -1, 36
1491432381278,-11, -5, -6, -2, -4, 2, 0, 1
1491432381286,-3, -6, -2, 0, -1, -1, 3, 15
1491432381301,3, -1, 0, -1, 1, -2, 0, -5
1491432381309,5, 3, -2, -2, -3, 1, -3, -14
1491432381316,1, 1, 0, 0, -2, 0, -3, -5
1491432381331,-14, -3, -2, 1, -2, 0, 0, -35
1491432381339,-8, -1, 0, -3, -3, 2, -3, 0
1491432381340,20, -1, 0, -3, -3, 0, 0, -6
1491432381346,1, -6, -1, 0, 2, -3, 1, 4
1491432381361,-3, -2, -4, -1, 0, -2, -1, 0
1491432381369,0, 1, -1, 1, 1, -2, -1, 4
1491432381376,-5, -3, -3, -2, -2, -2, 3, 4
1491432381391,-6, 4, -3, -2, -3, 2, 2, 3
1491432381399,-5, -4, -3, -3, -3, 1, -4, -2
1491432381406,-3, -4, 4, -3, 3, -1, -1, -8
1491432381421,-4, -5, -1, -3, -1, -3, 1, 0
1491432381429,-3, -6, -1, 0, -2, 2, -3, 1
1491432381436,-5, -2, 2, 3, 0, -3, 2, 1
1491432381451,1, -3, -1, 1, -1, 0, -4, -2
1491432381458,-5, -4, -1, -1, 0, -1, -9, -5
1491432381466,3, 0, -2, 0, 0, -3, 2, 15
1491432381481,-3, -2, -1, 0, 3, -3, -3, -5
1491432381489,12, -1, -2, -1, -2, 1, -3, 2
1491432381496,6, 0, -1, -1, -1, 2, 2, 5
1491432381511,-1, -6, -2, -1, -7, -2, -1, -3
1491432381518,1, -1, -1, 0, 1, -1, -3, 4
1491432381526,-8, -6, -1, 2, 1, -1, -2, 1
1491432381541,-4, -4, 2, -3, -4, -1, 0, -4
1491432381549,-6, -1, 0, 0, -1, -3, -1, -3
1491432381556,3, 2, 0, 6, -3, -3, -1, 0
1491432381571,0, -2, -1, -4, 2, -2, 0, -2
1491432381578,-6, 3, 4, 14, 3, 0, -6, 2
1491432381586,-3, 1, 4, 0, -2, -3, -3, 1
1491432381601,-3, -3, -5, -1, 4, -2, 2, 1
1491432381609,0, -2, -1, 0, 0, 3, 2, -5
1491432381616,-2, 0, 2, -13, -11, -3, -2, -6
1491432381631,-3, 0, 0, -8, -2, 0, 0, 0
1491432381639,2, -3, -2, 1, -1, -1, -1, -3
1491432381646,-1, 4, -1, -17, -8, -2, -2, -7
1491432381647,2, 2, 4, 5, 2, -1, 0, -1
1491432381661,0, 1, -2, -7, 0, -1, 4, 6
1491432381669,-1, -3, 0, -5, -4, 1, 0, 2
1491432381676,1, -10, -1, -3, 5, 2, -1, 1
1491432381691,-4, -1, 2, 17, 8, -1, -3, -6
1491432381698,-4, 0, -1, -5, 0, -3, -3, -2
1491432381706,4, 1, -1, -6, -4, -1, -1, -1
1491432381721,2, 3, -3, -7, -5, 4, 2, 2
1491432381730,-4, -2, -4, -1, 0, 0, 0, 2
1491432381736,0, -2, -2, 0, -1, -5, 0, 3
1491432381751,-1, -1, -3, -2, -1, -4, 0, -2
1491432381759,2, 1, 4, 3, -1, -1, -2, -3
1491432381766,1, -1, 0, -5, 16, -1, 4, -3
1491432381781,-3, -1, 2, 14, 0, -2, 1, -3
1491432381789,-5, -9, -4, 0, -6, 0, -2, -4
1491432381796,6, 2, 0, -7, 0, 0, -3, 3
1491432381811,0, -2, -2, -2, -5, -1, 1, 1
1491432381818,-3, 1, -1, -2, 0, 2, 1, -1
1491432381826,17, 6, 0, 3, -2, 0, -3, 2
1491432381841,-3, -4, -2, 1, -1, -1, 1, -1
1491432381849,3, -1, -2, -1, 1, -3, -1, 0
1491432381850,-3, -5, -1, 0, -5, -5, -3, 0
1491432381856,0, -6, -3, 0, 1, -1, -2, -2
1491432381871,-3, 1, -2, -3, -5, 1, -3, -3
1491432381878,-11, -5, 0, -2, 1, 2, 1, -2
1491432381887,-5, -8, -3, -2, -5, -1, 0, 0
1491432381901,-5, -2, -4, -6, -3, -2, 5, 0
1491432381909,0, -4, -2, -3, 2, 1, -1, 0
1491432381916,1, -1, -2, -2, -2, -1, 1, 0
1491432381931,-1, 0, -1, -2, -4, -3, -3, -2
1491432381939,0, 0, 4, 17, 0, 0, -3, 0
1491432381946,-2, 4, -1, -3, -1, 3, -1, -1
1491432381961,2, -2, -1, -9, -3, 0, -4, -1
1491432381971,-2, 0, 0, -2, -1, 0, -2, -3
1491432381972,-2, -6, -2, 0, 4, -3, -1, 0
1491432381975,1, 10, -1, -1, 1, -2, -2, -2
1491432381976,2, -7, -3, -1, 1, 0, -3, -1
1491432381990,-3, -7, -1, 0, 0, -2, -1, 0
1491432381991,-4, 0, 1, -2, -3, 1, -1, 0
1491432381998,-6, -2, -1, -3, 2, 0, -2, -2
1491432382007,-3, -7, -2, 4, 2, 0, -1, -2
1491432382021,1, 7, 0, -4, -4, 0, -2, -1
1491432382029,-1, 2, 1, -5, -5, -2, -3, -1
1491432382036,1, 2, -2, 2, 1, -4, 0, -2
1491432382051,-2, -2, 1, 7, 1, 0, -2, -2
1491432382058,4, 1, -1, -7, -2, 0, -1, 0
1491432382066,-2, 4, -1, -2, -2, -4, 1, -2
1491432382081,-5, 1, -2, 2, -4, -6, -1, -1
1491432382089,0, 0, -1, -1, -2, 1, -4, 0
1491432382096,3, -1, -2, -5, -4, 2, -1, 0
1491432382111,-2, -4, -2, -8, -3, -1, 2, 0
1491432382118,0, -3, 0, -1, -1, 0, 1, 0
1491432382133,0, -2, -1, 5, 2, 1, 1, 2
1491432382141,-2, 0, -1, -2, 2, -2, -3, 0
1491432382149,-1, 5, 7, -4, -2, -2, -1, 1
1491432382162,-3, -8, -1, 19, 2, -4, -5, -2
1491432382171,0, -3, -3, -12, -5, -2, -1, -5
1491432382179,-4, -1, 1, -1, -2, -1, 1, -3
1491432382180,1, 1, 2, 23, 6, 1, 2, 1
1491432382193,-1, -7, -1, -1, -3, -2, -6, -3
1491432382201,2, -3, -4, -15, -3, 1, -2, 3
1491432382209,1, -1, -2, -4, 2, -2, -1, 3
1491432382223,-1, -1, 1, -11, -4, -3, 3, -2
1491432382231,-1, -5, -4, 1, 3, 3, 5, 3
1491432382239,0, 2, -1, -6, -3, -2, 1, -2
1491432382253,-1, -4, -5, 8, 1, -1, -1, -2
1491432382261,-2, -3, -3, -27, 0, 2, 1, -1
1491432382276,-1, 1, -3, -9, -5, 1, 1, -1
1491432382283,0, 0, -3, 3, -4, -4, -1, -1
1491432382291,0, -2, 0, -7, -6, 0, 0, 0
1491432382292,-3, 2, 3, 13, 3, -5, -4, -4
1491432382298,-2, 1, 1, 4, -1, 0, 3, 0
1491432382314,1, 0, 0, 2, -2, 1, 5, 2
1491432382321,0, -7, -3, 7, 3, -2, -15, 0
1491432382329,0, 1, 2, -4, -1, -3, -3, -1
1491432382343,-1, -2, -1, 7, 1, 1, 1, -3
1491432382351,0, 3, 2, 6, 5, 0, -4, -3
1491432382359,-1, -2, -2, -8, -8, -2, -3, -1
1491432382380,1, 0, -2, -3, -2, 0, -1, -3
1491432382381,0, 1, 0, 15, 8, -2, -5, -3
1491432382389,-3, -8, -6, -15, -5, 0, 1, -3
1491432382406,-2, -6, 0, -12, -5, -1, 3, -4
1491432382411,0, -2, 1, 0, 1, -1, 0, -2
1491432382418,-3, -3, -3, -9, -6, 1, 2, -2
1491432382440,-2, -4, -6, -3, -3, -2, -1, 0
1491432382441,3, 2, 2, 2, -3, -1, 1, 4
1491432382449,0, -11, -4, 1, -1, -3, -12, -5
1491432382463,-4, -8, -6, -2, -2, -3, 1, 2
1491432382472,0, 2, 0, -13, -4, 0, -1, 2
1491432382478,-1, 5, 3, -3, 2, 1, -5, -5
1491432382493,-3, 3, 0, 2, -2, 1, -2, -2
1491432382500,-4, -8, -5, -4, -2, 1, 0, -2
1491432382501,0, -4, -1, 2, 1, 0, -2, -1
1491432382509,-1, -3, -3, 1, -2, 1, -2, -3
1491432382524,4, 13, 6, 8, 2, -1, 1, 0
1491432382531,-6, -4, -3, 2, 1, 1, 4, 3
1491432382538,0, -4, -4, -5, -4, -1, -1, -2
1491432382553,-2, -2, -2, -1, 1, 0, 2, -5
1491432382561,2, 7, 6, 8, 3, -4, -6, 0
1491432382570,1, -8, 0, 0, -2, -2, -11, 3
1491432382583,-2, -5, 1, -3, -2, 0, -7, -5
1491432382592,1, -4, -5, 3, -3, -3, 0, 3
1491432382599,-2, -9, -3, 11, 1, 0, 3, 0
1491432382614,-1, 2, 2, -1, 2, 2, 4, 1
1491432382620,0, -2, -2, -3, 3, 0, -5, 0
1491432382621,-5, -10, -5, -7, -2, 1, 2, -1
1491432382629,-2, 2, -2, 2, -1, -2, 3, 0
1491432382643,-2, -6, -4, -6, 0, -3, 3, 1
1491432382652,1, 1, 5, 2, -1, 0, -9, -7
1491432382658,-5, -5, -3, -4, -2, 2, -2, -3
1491432382673,-3, 2, -2, -1, -3, -3, -1, 2
1491432382681,2, 5, 2, 19, 3, 3, 1, -3
1491432382689,0, -1, -1, -5, 2, -3, 3, 1
1491432382703,1, 3, 1, -8, -1, -3, 2, 3
1491432382711,-1, 3, 5, 7, -1, -2, 1, -6
1491432382718,-1, -6, -6, -2, -2, 0, -7, 0
1491432382734,2, 2, 0, -3, 2, -2, 1, 3
1491432382741,-3, 5, 0, -1, 1, -4, -5, -5
1491432382749,-3, -5, -3, -4, 3, 0, 4, 0
1491432382764,0, 3, 0, -5, 0, 0, 1, 3
1491432382771,1, 3, 2, 4, 0, 3, 1, 6
1491432382778,-4, -3, 1, -5, -4, -1, 1, -3
1491432382793,-4, -8, -6, -1, -2, 0, 0, 0
1491432382801,7, -4, -3, -3, -2, -4, 0, 0
1491432382809,2, -2, -4, 1, 0, -2, 0, -4
1491432382823,-3, -5, -1, -4, -5, 2, 1, -4
1491432382831,1, -2, -4, 0, 1, -2, -3, -6
1491432382839,-3, -5, -1, 1, 0, -2, 5, 6
1491432382853,3, -1, 5, -4, -4, 0, 1, 3
1491432382861,2, -2, -4, -2, 0, 1, 0, 2
1491432382869,-3, -5, -7, -7, -3, 2, 0, 3
1491432382883,4, 13, 8, 4, 0, -1, -3, -1
1491432382897,-4, -13, -7, -2, 0, 0, 0, -4
1491432382898,0, -1, -3, -1, 0, -4, 0, -2
1491432382899,-3, 0, -4, -6, -3, -1, -1, -1
1491432382914,3, 3, 5, 9, 4, 3, -1, 0
1491432382921,-3, -6, -2, -4, -1, -2, -1, 2
1491432382930,-2, -4, -2, -9, -4, -4, 0, 0
1491432382943,0, 6, 2, 5, 3, -1, -2, -2
1491432382951,0, 13, 3, 2, 0, 1, -1, -5
1491432382958,-1, 4, 7, 1, 3, 3, 3, 0
1491432382973,-1, 2, 3, 0, 0, -1, 0, -1
1491432382981,-6, -10, -8, -8, -7, -2, -3, 8
1491432382989,-2, -6, -4, -5, -9, 2, 1, 3
1491432383003,0, -6, -4, -1, -4, -1, 5, -1
1491432383011,1, 2, 1, 1, -3, -1, -1, 1
1491432383018,1, -3, -2, -1, 3, 1, 0, 0
1491432383035,-3, -5, -2, -1, 0, 0, 0, -6
1491432383041,-2, 6, 2, 1, -2, -4, -2, 0
1491432383056,-4, -5, -1, -2, 3, -2, -1, 0
1491432383065,0, -12, -4, 0, 0, -4, -3, -6
1491432383071,1, -6, -6, -2, 1, 0, -3, -2
1491432383085,4, 5, 1, 0, 0, 2, -1, -5
1491432383093,3, 10, 2, 2, -5, 2, -6, 2
1491432383103,-4, -10, -7, -4, -4, -3, -3, 11
1491432383116,-2, -6, -2, -4, -1, 1, -1, 5
1491432383123,-2, -1, 0, 0, 1, 3, 1, -1
1491432383132,-8, -10, -4, -2, -1, -3, -2, -6
1491432383145,-1, 14, 4, 1, 1, 2, 0, -4
1491432383154,-6, -14, -8, -4, -4, -3, 0, 5
1491432383155,5, 10, 0, 1, -3, -2, 1, -4
1491432383161,-3, -7, -5, -5, -1, -5, -2, -3
1491432383176,1, 11, 2, 4, 4, -2, -7, -3
1491432383183,4, -1, 0, 1, 1, -1, 3, 0
1491432383191,0, -9, -1, 1, -2, -1, 4, -2
1491432383205,-2, -3, 1, 6, -4, 3, -5, -5
1491432383213,-1, -3, 2, -6, -2, -3, 1, 0
1491432383221,-4, -3, -6, 0, 2, -4, 0, 0
1491432383237,-3, -2, 0, -5, 2, 0, 0, 2
1491432383243,-4, 0, 1, -8, -5, -2, 1, -5
1491432383252,-2, -5, -2, 2, 1, 1, 0, -5
1491432383265,3, -4, 2, 3, 3, 1, 1, -2
1491432383273,-1, -7, -3, -2, -3, -4, -3, -4
1491432383281,0, 2, -1, 1, 3, -2, -14, -6
1491432383296,-2, -2, 0, 1, -2, -2, 1, 3
1491432383303,0, -8, -2, 0, -5, 0, 2, -2
1491432383314,-1, -1, -3, 1, 2, 2, 0, 1
1491432383326,-1, 0, 2, 16, 2, 0, -1, -2
1491432383334,0, -2, -1, -3, -3, 2, 3, 1
1491432383341,-3, -4, -5, -11, -5, 0, 1, 1
1491432383356,0, 5, 3, 24, 1, -1, -1, -3
1491432383363,-2, -1, -4, -21, -5, 0, 1, 2
1491432383371,-2, -5, -2, -15, -5, -3, 2, 0
1491432383385,1, -7, 0, 10, 11, 1, -1, -4
1491432383393,-5, -1, 1, 23, 16, 3, -1, -3
1491432383401,3, 1, -1, -1, 2, -3, -4, -3
1491432383416,-2, -5, 1, 6, -2, -4, -2, -3
1491432383423,-3, -4, -3, 5, -4, 0, 1, 0
1491432383431,0, -1, -3, -13, -5, -3, 0, -1
1491432383447,-6, -1, -3, 2, -3, -3, -1, -6
1491432383453,0, -5, -2, -5, -3, 1, -2, 1
1491432383461,-1, -9, -4, -1, 3, -2, -1, 2
1491432383476,-2, -2, -1, -9, -2, -2, -4, -4
1491432383483,4, -5, -4, -12, -4, 0, 1, 1
1491432383491,3, 3, 5, 50, 3, -1, -4, -2
1491432383505,-1, 4, 1, -15, -6, 0, 0, 2
1491432383513,-6, -8, -5, -25, -8, -2, -1, -3
1491432383521,-5, -5, -1, 9, 1, -2, 1, -3
1491432383536,-3, -5, -7, -7, -3, 1, -2, 0
1491432383543,-5, -7, -3, -3, 2, -1, 1, 0
1491432383551,2, 0, -2, -8, 2, 1, 0, 2
1491432383565,0, -2, -1, -5, -4, 2, 0, 0
1491432383573,-1, 12, 3, -6, -4, 0, -1, -2
1491432383581,1, -4, 0, 2, 0, -2, 0, 2
1491432383596,2, -4, 0, -5, 4, 1, 1, 0
1491432383603,-2, 7, 0, 3, 1, 1, 1, -1
1491432383611,0, -5, -5, -10, -5, -5, -4, -2
1491432383625,-2, 0, 0, 2, 4, -1, -3, -1
1491432383633,-5, -7, -4, 2, 2, -5, -1, -2
1491432383641,1, -15, -7, -8, -6, -3, -3, -3
1491432383657,-2, 0, 0, -6, -2, 2, 0, -1
1491432383663,4, 10, 2, 4, -4, 2, -5, 2
1491432383671,2, -7, -2, 8, 0, 1, 0, 3
1491432383685,0, 4, 2, -2, -3, -3, 1, -1
1491432383693,-2, 2, 3, -2, 0, 2, 1, 1
1491432383701,-4, -7, -5, 1, -1, 0, 0, -3
1491432383722,1, 2, 4, -2, 1, 0, 0, -2
1491432383723,0, -4, 2, 1, 0, 3, 0, 2
1491432383724,0, 4, -3, -1, 1, -1, 0, 0
1491432383731,2, 6, 1, -2, -2, -2, 0, -2
1491432383745,-1, 8, 6, 1, -1, 0, -1, -2
1491432383753,1, -2, -2, -2, -3, -1, -1, -2
1491432383761,3, -1, 0, -8, 1, -2, 3, 1
1491432383776,-1, -7, -2, 13, 3, 2, -2, 0
1491432383783,0, 1, 4, 13, 0, 2, 0, 1
1491432383791,4, 4, -5, -9, -2, -4, -1, 2
1491432383805,-4, 0, -1, -4, 1, 2, -2, -1
1491432383813,-2, -4, -1, -5, -1, 1, 0, -3
1491432383821,-2, -8, -2, -1, 2, 0, -2, -2
1491432383844,-3, 1, -2, -2, -4, 2, -3, -2
1491432383852,1, 5, 3, -6, -1, 0, -2, 1
1491432383865,0, -3, -1, 2, -1, 0, -1, 1
1491432383866,1, 0, -1, -7, 0, -5, 1, -2
1491432383874,1, 0, -2, -1, 2, -2, -4, 1
1491432383880,-1, -2, -1, 6, 5, 0, -1, 1
1491432383881,0, -4, -2, 0, -4, -4, -1, -4
1491432383896,4, 8, -1, -3, -5, 2, 1, 2
1491432383903,0, 1, 1, 0, 1, -1, -3, 0
1491432383912,-1, -3, 0, -2, -2, -2, 0, -3
1491432383925,0, 2, -1, 4, 0, 1, 1, -5
1491432383933,-2, -1, 2, 5, 4, 0, 0, -1
1491432383947,-1, 0, -2, -4, -3, -4, -3, -3
1491432383948,3, -1, -4, -6, -2, -1, -3, 2
1491432383956,-5, 3, 4, 2, 0, -2, -2, -1
1491432383963,-1, 1, 3, 6, 3, 1, 0, 0
1491432383978,-1, -5, -4, -7, -4, 0, 1, 5
1491432383985,-1, 0, -3, -1, -6, -2, 0, 3
1491432383994,0, -11, 0, 0, 0, 0, 0, -1
1491432384007,1, 5, -1, -1, 0, 0, 0, 0
1491432384008,1, -4, -4, 0, -2, -2, -2, -3
1491432384016,-2, 2, -1, 8, 0, -4, 0, -1
1491432384023,-1, 0, -1, -3, 3, 0, 8, 1
1491432384038,-5, -8, 1, 0, -2, 0, 7, 0
1491432384039,5, 5, 0, -4, -1, -1, 0, -3
1491432384045,0, -5, -2, -4, -4, 0, 0, -3
1491432384053,-3, 3, -2, 0, -4, -1, -2, -2
1491432384068,0, -4, -1, -5, 2, 0, -1, 3
1491432384076,6, 19, 3, -5, -4, -2, -1, -2
1491432384083,-6, -3, 1, 3, -1, -1, -2, -3
1491432384098,-4, -7, 0, 4, 1, -2, -1, 0
1491432384105,1, 4, -3, 1, -5, 0, -2, -1
1491432384113,1, 3, 4, 6, 1, 1, -2, -2
1491432384127,-1, -4, -1, 4, 0, -1, -1, 1
1491432384135,-1, 1, 2, -4, 0, -3, 1, 2
1491432384136,-3, -13, -5, 4, -1, 0, -2, 1
1491432384150,0, -2, -4, -2, -1, 2, -5, -2
1491432384159,-1, -7, -3, -4, 0, 0, 0, 1
1491432384165,0, -4, 1, 16, 1, -2, -2, -1
1491432384173,-3, -4, -4, -5, -1, -5, 1, -2
1491432384187,-1, 1, 5, -3, 2, 0, -1, 0
1491432384196,-4, -4, -2, -7, -4, -1, 1, -2
1491432384203,1, 4, 0, -2, -3, -3, 0, -2
1491432384218,2, 9, -3, -2, -1, -1, 0, -1
1491432384225,-2, -5, -3, -7, -3, -2, 3, 0
1491432384234,-1, -2, -2, -4, -3, 2, -2, 1
1491432384248,1, 1, -4, 0, 0, 2, -2, -1
1491432384255,-1, 1, 1, -6, -2, -1, 0, 1
1491432384256,-4, -6, 0, 8, 2, -4, -5, -6
1491432384263,0, -3, 0, -10, -2, -4, -3, 2
1491432384278,-3, -2, -2, -10, -3, -4, -1, -2
1491432384285,1, 3, 5, 2, 0, 1, 1, 0
1491432384293,-1, -4, -3, 7, 2, 3, -1, -3
1491432384307,-2, -2, -1, -3, 1, -2, 1, 1
1491432384316,2, 5, 2, -3, -3, -3, 0, -3
1491432384323,-4, -1, -3, -7, 0, 0, -5, -4
1491432384338,-1, -5, -5, -3, -1, 0, 2, 3
1491432384346,1, 1, 0, 1, 1, -1, 4, 3
1491432384353,0, 0, -3, -7, 0, 1, -1, 1
1491432384368,-2, -4, -4, -5, -4, 1, -2, 0
1491432384376,3, 0, -1, -3, -2, -2, -1, -1
1491432384383,-1, 0, -1, 1, -1, -3, 0, -2
1491432384398,-1, 1, 1, -2, 0, 1, -1, 1
1491432384405,0, -2, 0, -3, -4, 2, -2, -2
1491432384414,-2, 1, -2, -5, 0, -2, 0, -1
1491432384428,-3, -5, -2, -2, 0, -1, 0, -2
1491432384436,-1, -2, -2, -3, 0, -2, -1, 0
1491432384443,0, -2, -1, -6, -3, -5, 2, -1
1491432384458,-1, -2, 0, -1, 0, 4, -1, -2
1491432384465,0, -3, -2, 3, 2, 1, -1, -2
1491432384473,-4, 1, 2, -2, -2, -4, -3, -6
1491432384488,0, -2, -2, 6, -2, -1, -1, 1
1491432384495,2, -2, -2, -7, 1, 1, 2, 2
1491432384496,-2, -3, -1, 9, 2, -1, 0, 2
1491432384503,1, 5, 3, 1, -4, -2, -1, -3
1491432384518,0, -6, -2, -1, -2, -3, 0, 0
1491432384525,-3, -4, -1, -2, 0, -3, 0, -6
1491432384533,-2, -5, 2, -8, -5, -4, 1, -1
1491432384547,-1, -1, 1, 16, 0, -1, -1, 2
1491432384548,2, -1, -1, -5, 2, 2, -3, 3
1491432384556,-1, -5, -4, 0, 0, 3, -3, 0
1491432384564,-1, 3, -4, 3, -3, -1, 0, -2
1491432384579,0, -3, -4, -2, -1, -3, 1, 0
1491432384585,-2, 5, 1, 7, -2, -2, -3, -6
1491432384594,-4, 1, -1, -2, -3, 0, -3, -4
1491432384607,-4, -6, -2, -2, 1, -1, -3, 2
1491432384616,1, 0, 1, 0, 0, 2, -2, -1
1491432384624,1, -2, 0, 1, -1, -4, 0, 0
1491432384638,-1, -4, -4, 7, -1, -1, 0, -1
1491432384645,-2, 0, 0, -5, -3, 1, 1, 2
1491432384654,0, 0, -2, -1, 1, 2, 1, 2
1491432384667,0, -4, -4, 0, 0, 0, 2, 3
1491432384676,0, 5, 3, -3, 1, -3, -1, 0
1491432384683,-2, -9, -4, 0, 3, -2, -2, -3
1491432384698,-1, -6, -2, -1, -3, 0, 2, 2
1491432384705,-3, -5, -2, -1, -5, 2, -3, -3
1491432384713,2, 1, 1, -4, -1, 1, 2, 1
1491432384727,2, 1, 0, -3, 1, -1, 4, 3
1491432384736,-3, -2, -2, 0, -1, -2, -1, -1
1491432384737,-2, 1, -2, -3, -3, -2, -2, -6
1491432384743,2, 4, 2, 0, 0, -1, -1, -1
1491432384758,-5, -5, 1, 2, 5, 0, 0, -3
1491432384765,2, 1, -1, 0, 1, 4, -3, -1
1491432384773,2, -4, -3, 1, -4, 0, -1, 1
1491432384787,0, 6, 9, -6, -4, 0, 3, 2
1491432384788,0, -1, -1, 8, 0, -2, -1, -4
1491432384796,4, 3, -2, 3, 0, -4, -1, -3
1491432384803,-4, -4, 0, -4, 2, -2, -1, -1
1491432384818,-4, -6, -1, -2, -1, -1, -3, -3
1491432384825,-1, -4, 0, 1, 0, 3, -1, -2
1491432384834,-1, -1, -4, -5, 0, 3, 1, 4
1491432384847,-2, 0, 0, 9, 5, 1, -2, -1
1491432384848,3, 3, 1, -1, -3, -4, -3, -5
1491432384856,-1, -3, -3, -3, -3, 1, -1, -1
1491432384863,-2, -1, -1, -2, -4, 0, 1, 2
1491432384878,-3, -1, 1, 0, -1, -2, -3, -4
1491432384885,-3, 0, -2, 9, 3, 1, -3, -6
1491432384893,-4, -4, 2, 1, -1, -1, -1, -1
1491432384907,-2, 3, 2, -5, -1, 2, -1, 1
1491432384908,-2, -3, 0, -8, -1, -3, -2, 0
1491432384916,3, 4, 3, 1, 2, -4, -1, -2
1491432384930,-1, 0, -1, 5, 1, -3, 0, 2
1491432384938,1, -1, -2, -3, -2, 1, -1, 1
1491432384945,-3, -4, -3, -3, -1, 0, -1, -3
1491432384961,-1, 0, -1, 1, -2, 0, -2, 1
1491432384967,-4, 1, -1, -1, -6, -1, -2, -5
1491432384976,0, -3, 1, -3, 0, -2, -2, -2
1491432384990,4, 6, 0, -5, 0, -2, 2, 3
1491432384999,-1, -1, -1, 2, 5, 2, 2, 1
1491432385012,-2, -1, 2, -2, 1, 0, -5, -1
1491432385013,-1, -2, -4, -3, 1, -1, -3, -3
1491432385020,1, -5, -4, -1, -1, 0, 2, 4
1491432385035,-2, -3, -3, -8, 2, 1, -2, -2
1491432385038,-3, -3, -1, -7, -7, -1, -3, -3
1491432385050,1, -2, 0, 1, -1, 2, 0, 2
1491432385058,1, -1, -3, 2, -4, -2, -1, 0
1491432385065,1, -5, 0, 1, 0, 1, 1, 2
1491432385081,-2, -3, -1, 1, 2, -4, -2, -2
1491432385087,2, -2, -2, 0, -2, -3, 0, 0
1491432385088,0, -3, 0, -1, -4, -4, 1, 5
1491432385095,-4, -5, -4, -2, -2, -4, -3, -3
1491432385096,-2, 4, 3, 3, -2, -1, 0, -2
1491432385110,-3, -2, -1, 1, -2, -2, -3, -1
1491432385118,-2, -3, -3, -1, 0, 2, -1, 0
1491432385125,0, 3, 3, 1, -1, -4, -1, -3
1491432385141,-4, 1, -2, -5, 0, -5, -3, -6
1491432385147,-2, -3, -3, -3, -2, -1, -3, -4
1491432385156,-1, 1, 1, -2, 2, 1, 1, 3
1491432385170,-4, -1, -2, -2, -6, -2, -3, -6
1491432385178,0, -3, 0, -5, -4, -4, 0, 2
1491432385185,0, 2, -1, 5, 0, 2, 3, 1
1491432385201,0, -3, -1, -2, -1, 1, 1, 1
1491432385208,-1, 1, 0, -4, 1, -1, -1, -3
1491432385216,-1, -4, 0, 14, 3, 0, -2, -1
1491432385230,0, -3, -4, -1, 0, -1, 1, 3
1491432385238,1, 1, -2, -3, -4, -2, 2, 3
1491432385245,3, -1, 2, 0, -1, -1, 0, 3
1491432385261,-2, -4, -2, -4, -5, 1, 0, -3
1491432385268,-2, -4, 0, 4, 0, 1, -1, -4
1491432385269,2, -2, -2, -5, 3, 0, 1, 0
1491432385275,2, -1, -2, -4, 3, 2, 0, 2
1491432385276,-2, -3, -3, -2, 1, 1, -2, -2
1491432385293,-2, 0, -1, -2, -1, -1, -1, 1
1491432385299,-2, -4, 0, -4, -1, -1, -1, -2
1491432385313,-1, -1, 0, 0, 1, -4, 2, 2
1491432385314,-2, 0, 2, -1, -2, -2, -2, -5
1491432385320,2, -6, -1, -8, 0, -1, 1, -2
1491432385321,0, -2, -2, 13, 1, 1, 0, -2
1491432385328,-1, 0, 0, -6, -3, 0, 2, 4
1491432385329,2, 1, -3, 0, 1, -5, -3, -2
1491432385336,0, 0, -1, -1, -2, -1, -3, -2
1491432385351,-3, -4, -2, -2, -2, -2, 0, -1
1491432385358,2, 6, 3, -1, 0, 0, 0, -3
1491432385374,0, -6, 0, -1, 0, 1, -1, 0
1491432385381,1, 1, 0, 2, 0, 2, -1, 0
1491432385389,0, -3, -2, 0, 1, 2, 0, 2
1491432385395,-4, -5, -2, 2, 1, -4, -3, -6
1491432385396,-4, -1, 0, -6, 1, 0, 2, 0
1491432385411,0, 4, -2, -1, -1, -1, -1, -1
1491432385419,-1, 1, -2, -2, -4, -4, -1, -1
1491432385434,-2, -2, -1, 0, -2, 2, 0, 1
1491432385441,-2, -4, -3, -1, 0, -3, -6, -5
1491432385450,-2, -3, -2, -2, 1, -2, -2, -1
1491432385456,-1, 4, -1, 0, -2, 1, -6, -2
1491432385471,-1, -3, -2, -1, -2, -2, 0, -2
1491432385478,-1, -5, -1, 0, -2, -5, -2, 0
1491432385494,-4, -4, -1, -1, -3, -2, -2, -5
1491432385501,0, 0, -1, 0, 0, 2, 1, -1
1491432385502,-1, -6, -3, 0, 1, 1, 2, -2
1491432385508,-1, 0, -3, -1, 1, 2, -7, -4
1491432385509,1, -6, -2, 1, 1, 1, 0, -1
1491432385515,-2, -3, 1, 1, -2, -5, -1, -2
1491432385531,-1, -2, -2, -4, -1, 0, 0, 3
1491432385538,4, 1, -2, 4, -1, -2, 1, 2
1491432385554,-4, 1, 0, -3, 0, -6, -3, -5
1491432385560,-7, -4, -1, 0, -1, 0, -3, -2
1491432385561,10, -4, -3, -4, -2, 1, -3, 0
1491432385568,0, 6, 1, 1, 0, 1, 0, 2
1491432385577,-4, 2, -3, 1, -3, 2, 2, 2
1491432385591,2, 0, 0, 3, -2, 1, -1, 1
1491432385598,3, -3, -1, -4, 0, -2, 0, -1
1491432385614,-4, -1, -3, 0, 3, -2, 1, -1
1491432385615,-1, 1, 3, 1, -2, 0, 3, 3
1491432385621,2, -6, 0, 1, -2, -3, -2, 2
1491432385629,0, -3, -1, -2, -1, 1, -5, -5
1491432385636,-3, 1, -2, -6, 0, 3, 2, -1
1491432385651,0, -1, -3, -1, -1, -2, -1, 1
1491432385666,-3, -2, -2, -1, 2, -3, 1, -1
1491432385674,-1, -8, -3, -3, 0, -1, 0, 0
1491432385680,2, 5, 6, 0, 2, -1, 0, 0
1491432385689,-6, -6, -4, -2, -3, -3, -2, -2
1491432385695,1, 1, 1, -2, 0, -1, -3, -3
1491432385696,-4, 1, -3, -1, 2, -3, -1, -2
1491432385712,0, 3, 1, 1, 2, 0, 0, 0
1491432385718,-1, -3, -2, -2, -3, -2, -4, -3
1491432385734,0, -7, -2, 2, -3, 2, -3, -5
1491432385740,0, 1, -6, -5, -3, 1, -1, 4
1491432385741,-1, -4, -5, -1, -4, 1, 2, 1
1491432385748,-2, -4, -1, -1, -2, -2, 0, -3
1491432385749,-1, 0, 1, -1, 3, -1, 1, -2
1491432385756,-1, -4, -3, 1, -1, -2, 0, 0
1491432385771,0, -5, -3, -2, -1, -3, -1, -2
1491432385778,-3, 0, -5, -1, -3, 2, 0, 0
1491432385796,-4, -2, 0, -2, -2, -4, 1, 2
1491432385801,-3, -8, -2, -2, -2, 0, 1, -1
1491432385815,-2, 3, -5, -2, 0, 0, 0, 2
1491432385817,0, 0, 3, -1, 1, 2, 0, 2
1491432385831,2, 4, 0, 1, -1, 1, -4, 0
1491432385839,0, 0, 3, 0, 1, -4, -1, 0
1491432385854,0, 0, 0, -2, -4, -4, -2, -1
1491432385861,-2, -1, -2, -2, 0, -1, -3, -3
1491432385869,0, 2, -1, 0, 0, 0, 0, -2
1491432385883,0, -7, -1, -2, -1, -1, -2, -8
1491432385891,1, -3, -2, 0, -1, 3, 0, 2
1491432385898,0, -3, -2, 1, -2, -1, 0, 1
1491432385914,-4, -3, -3, -2, 0, -4, -1, -4
1491432385922,-2, 5, 4, 1, 0, 1, -6, -1
1491432385928,3, -1, 0, -1, 0, 2, -1, 1
1491432385929,-5, -2, -3, 0, -1, 0, 0, -3
1491432385943,2, 0, -2, -1, -1, -3, 0, -1
1491432385951,0, -2, 0, 1, -4, -3, -2, -2
1491432385958,-1, 5, -3, -2, 1, -2, -3, -7
1491432385974,3, -4, 0, -3, 0, -1, 0, 1
1491432385980,-2, -4, -3, 0, -2, 0, 0, 4
1491432385989,0, -1, -2, 2, -1, 2, -3, -3
1491432386003,0, 1, 1, 1, -1, 1, 0, -2
1491432386011,0, 1, -2, 0, -2, 0, 1, 2
1491432386018,-4, -3, -1, 1, -2, -2, 0, 0
1491432386034,-1, 0, -2, -2, 0, -4, -2, -1
1491432386040,0, -9, -2, 0, 2, -4, -1, 2
1491432386041,1, -2, -3, 0, 0, -1, 1, -2
1491432386049,-2, -1, 4, -1, 0, 0, 0, -1
1491432386063,0, 0, -2, -2, -2, -3, -2, 2
1491432386071,2, 0, 2, 0, 2, 0, -2, 0
1491432386082,-1, -8, 5, 1, -1, 2, -2, -2
1491432386094,-2, -4, -1, -1, 2, -5, 0, 0
1491432386100,2, 1, -2, 0, 0, 1, -2, -2
1491432386109,-2, -7, -1, 0, -3, 0, 1, 0
1491432386123,-1, -3, -5, -3, 0, -2, -1, -1
1491432386132,0, 1, -2, -2, -1, 0, -3, -2
1491432386138,1, 1, 0, -2, -2, 0, 1, 4
1491432386153,-4, -4, -4, 0, -3, -4, -2, -4
1491432386154,0, 1, 2, 3, -2, -3, -1, -4
1491432386160,-4, 7, 0, -3, -1, -4, -3, -8
1491432386168,0, -2, -3, -3, 3, 2, -2, 1
1491432386183,-3, -2, -1, 0, -1, 0, 0, 4
1491432386191,2, 0, -1, 2, 0, -1, 0, 3
1491432386198,-1, -3, -1, -1, -2, 0, -1, 1
1491432386214,1, -2, 1, 0, 2, 0, 0, -3
1491432386221,-2, -1, -3, 0, 1, -2, -3, -4
1491432386228,-3, 1, -1, -2, -1, -3, 0, 0
1491432386243,-4, -2, 1, -1, -2, -1, 3, 2
1491432386251,0, -3, -2, -3, -2, 1, 0, -1
1491432386258,1, -1, -4, 1, -1, 0, 0, 1
1491432386273,-2, -3, 3, -2, -2, 0, 1, 1
1491432386274,0, -2, -2, 0, 0, -1, 0, 1
1491432386281,0, -1, 0, -1, -1, 0, 0, 0
1491432386296,-2, 0, -2, -2, 0, -1, -4, -2
1491432386303,-1, -3, -2, -2, 0, -4, 0, 0
1491432386318,-3, -3, -2, -1, -3, -2, -2, -1
1491432386320,-3, -4, 1, 0, -1, 0, -2, -1
1491432386337,2, -3, 0, 1, 2, 0, 3, 0
1491432386338,-2, -1, 0, 0, 0, 2, 1, -1
1491432386342,-1, -3, -4, -1, -1, 0, -3, -1
1491432386348,-3, -1, 2, -2, -2, -1, 0, -1
1491432386349,-1, -1, 0, 1, -2, -1, 0, -2
1491432386363,2, 0, -1, -1, 1, 2, 0, 0
1491432386371,-5, -1, -4, -2, -3, 2, 1, -1
1491432386372,-3, -2, -2, -3, -5, 0, 0, -4
1491432386378,0, 3, 0, -1, -1, -2, -1, 0
1491432386394,1, -1, 0, -2, -1, -6, -1, 1
1491432386401,-1, -1, -3, -2, -5, -2, 0, 0
1491432386408,-1, 0, 0, 1, -2, 3, -2, -2
1491432386409,0, -1, 0, 0, 0, 1, 0, 0
1491432386424,4, -5, 1, -2, -4, -2, -2, 1
1491432386431,-1, 0, -2, -2, -6, -1, -2, -3
1491432386439,-7, -2, -1, -1, 2, 2, -2, -7
1491432386454,1, 6, 0, 0, 11, 3, -1, 1
1491432386461,-1, 1, -1, -2, -4, -3, 0, 0
1491432386469,-10, -8, -3, -1, 0, -2, -1, -3
1491432386484,-3, 1, -1, 2, 4, -2, -3, -1
1491432386491,-6, -1, -2, -3, -13, -4, 0, -4
1491432386499,3, -3, -1, -2, -7, -4, -1, -3
1491432386514,5, 2, -1, 4, 1, 3, 1, 3
1491432386520,-4, -2, -1, 6, 20, 4, -2, -1
1491432386528,-3, -1, -3, 2, 5, 0, -2, 2
1491432386529,-1, 3, -1, -5, -4, -4, -4, 1
1491432386543,-4, 1, -1, 0, 0, -3, -1, -4
1491432386557,1, -3, -3, -5, 3, -5, -4, 0
1491432386558,3, 9, 5, 5, -5, 4, 2, 4
1491432386559,-5, -4, 0, 5, 18, 3, 0, -3
1491432386574,14, 3, -1, -2, -3, -1, 0, -2
1491432386580,0, -1, 1, -3, -11, -1, 1, 5
1491432386589,5, 3, 1, -5, -6, 0, -3, 2
1491432386603,6, 1, -2, -6, -14, 3, -1, 1
1491432386611,-6, -4, 0, 2, -1, -3, -1, -4
1491432386618,-2, -3, -5, -5, -13, -8, -3, -3
1491432386634,-5, -6, -2, 0, 6, -2, -2, -2
1491432386641,-3, -5, -3, -2, 2, -3, 0, -6
1491432386649,-2, -2, -1, 2, 4, 0, 2, 1
1491432386663,-1, -2, 1, 6, 2, -1, -2, 0
1491432386671,-4, 4, 4, -3, -3, 1, 0, 0
1491432386678,0, -1, 0, 3, 5, 1, -1, -1
1491432386694,-2, -6, -3, -2, -1, -2, -1, 0
1491432386700,0, 3, 1, 1, 2, 4, -1, 0
1491432386709,-4, -2, -5, -2, -1, 0, -1, 1
1491432386723,-1, -1, -2, -4, -5, -8, -3, -9
1491432386731,-3, -5, -5, -4, -7, 1, -1, -1
1491432386738,-1, -8, -3, -1, -7, 0, 1, 5
1491432386754,-1, -4, -4, -2, -1, 1, -2, 0
1491432386761,-2, -2, -2, -5, -2, 0, -1, -1
1491432386775,0, -2, 1, 4, -5, -2, 0, 2
1491432386776,-3, -6, 0, 1, 3, 0, 0, -2
1491432386783,0, 4, 1, -1, -2, 0, 0, 1
1491432386791,1, 2, -1, 0, -2, -3, 3, 0
1491432386806,1, 0, 2, 1, -16, -1, 0, 0
1491432386814,-3, -6, -2, 3, 4, 1, -5, -9
1491432386821,-1, -8, -2, 0, 1, -2, -1, 2
1491432386836,-1, -10, 2, -2, 3, -1, 2, 5
1491432386845,1, -3, -1, -3, 2, 2, 3, 3
1491432386852,-3, 0, 3, -2, -5, 0, -3, -5
1491432386865,0, 1, -3, 1, 9, 6, 2, 0
1491432386866,-1, -2, -1, 0, 4, -1, -1, 0
1491432386874,4, 14, 5, 1, -8, -4, -2, 0
1491432386881,0, -2, -2, -1, -1, 1, -1, 0
1491432386896,-1, -3, -1, -2, 8, -3, 0, -2
1491432386903,-5, -2, -3, -5, -8, -3, -1, -2
1491432386911,-1, 1, -1, 6, 13, 4, 0, 1
1491432386926,-1, 3, 3, 0, 3, -2, -1, -1
1491432386934,2, 3, -2, 0, -6, -4, 0, -1
1491432386940,-5, 1, 0, 3, 1, -6, -6, -9
1491432386941,4, 3, -2, -1, -2, 0, 0, 4
1491432386956,-2, 1, -3, -3, -5, 1, -1, -2
1491432386963,3, 1, 1, 2, 3, -7, -2, -4
1491432386972,-1, -5, -4, 5, 27, 8, 4, -1
1491432386986,-6, -5, -3, -1, -17, -1, -7, -9
1491432386994,3, 0, 2, -1, -16, 0, 1, 6
1491432387000,-4, 1, -1, -5, -4, -5, -2, -2
1491432387001,-3, 0, 1, 2, 3, 0, 1, 0
1491432387016,3, 4, 0, -1, -7, -3, -2, -2
1491432387023,0, 2, -1, -4, -5, 1, 0, 3
1491432387031,1, 1, 1, -1, -4, 0, 0, 0
1491432387046,4, -1, 1, -1, 14, -4, 3, 1
1491432387054,-3, -9, -4, -3, -5, -3, -1, 0
1491432387061,-2, -1, -5, -4, 1, -2, 0, 1
1491432387076,-4, -6, -3, -3, -1, -1, 0, -1
1491432387083,-2, -8, 1, -6, -3, 1, 1, -1
1491432387091,-3, -6, -4, -1, -10, -4, -3, 1
1491432387106,-1, 0, -5, 1, 11, 0, 1, -2
1491432387114,-2, -13, -4, -1, 2, -2, -2, -2
1491432387120,-2, 1, 3, -2, -2, 4, 0, -3
1491432387121,-1, -4, 0, 1, -10, 4, -2, -1
1491432387135,1, -8, -2, 4, 18, 5, 3, 8
1491432387136,-1, 4, -2, -3, -2, 1, -4, -4
1491432387143,-3, -6, -5, -6, -11, -5, -1, -1
1491432387151,-3, 4, 2, 1, 0, -1, 0, -1
1491432387166,-2, 4, 5, 4, 5, 0, 1, -1
1491432387174,-1, -11, -3, -1, 2, -5, 0, 3
1491432387180,-8, -7, 2, -3, -6, -6, -2, -2
1491432387181,0, -11, -5, -2, 3, -4, 0, 1
1491432387195,0, 4, 1, -2, -11, -1, -2, -4
1491432387196,1, 3, 2, 1, 9, 3, 0, 0
1491432387203,0, 1, -1, 4, -5, 5, 3, -1
1491432387213,2, -1, -3, 1, -5, 1, 1, -1
1491432387226,2, 1, 1, -2, -2, 1, -5, 0
1491432387234,0, 1, 5, -3, -3, 0, -2, 1
1491432387241,1, 4, 1, -1, 1, 0, -1, -3
1491432387256,-4, -1, -1, -3, -9, -5, -2, -3
1491432387263,5, 6, -1, -2, 3, 1, 1, 2
1491432387271,-2, 6, 2, -1, -6, -5, -4, -6
1491432387286,-2, -3, -2, 0, 5, -2, -1, 1
1491432387294,-3, -5, -3, -2, -5, 0, 1, 2
1491432387301,-4, 1, -3, 1, -3, -3, -3, -4
1491432387316,-1, -5, -1, 0, -1, -2, -1, 1
1491432387323,-2, -4, -4, -1, -7, -3, 0, 1
1491432387331,3, 2, -2, -4, -13, -2, 2, 5
1491432387346,3, -1, 0, -2, 1, 2, 0, 1
1491432387354,2, -3, -1, -2, 1, 4, -2, -1
1491432387360,-5, -11, -2, 0, -1, -1, -1, -2
1491432387377,1, -3, 2, 2, 6, -1, 1, -2
1491432387384,-5, -6, -1, -1, 2, -6, -3, -5
1491432387391,0, -4, -1, 0, 4, 0, -2, -1
1491432387406,2, 4, 2, 4, 15, 4, 1, 1
1491432387414,4, 2, 0, -1, -2, -3, -1, -2
1491432387422,-1, 1, -3, -1, -1, 2, 1, -1
1491432387436,-9, -1, 2, 0, 7, 0, -2, -4
1491432387445,-5, -1, 1, -2, 2, -5, -8, -3
1491432387452,-4, -1, -5, 2, 2, -2, -1, -4
1491432387466,-2, -1, -2, 0, -11, 3, -3, 1
1491432387475,-2, -1, 0, 0, 3, 0, -1, -5
1491432387480,-2, 2, 3, 0, 4, 3, 1, 0
1491432387481,-1, -3, -5, -4, -2, 2, 2, 0
1491432387495,-2, -6, 1, -1, -11, -4, -3, -2
1491432387496,-2, -4, -7, -1, 9, 3, 0, -1
1491432387503,0, -3, -1, -2, 4, -2, -2, 2
1491432387511,-1, -2, -4, -6, -2, -6, -3, 1
1491432387525,-1, 0, 5, 3, 12, 0, -1, 2
1491432387526,-6, -8, -1, -5, -15, -3, 1, -5
1491432387534,1, 0, -3, 2, 0, 2, -2, -1
1491432387540,0, 1, 4, 2, 0, -3, -1, -2
1491432387562,-1, 2, 1, -2, -4, 1, 0, -5
1491432387563,3, 8, -2, -2, -1, 0, 0, 2
1491432387571,-5, -2, 3, -2, 0, -3, 0, 3
1491432387585,-2, -4, 0, -2, -6, -5, 0, -1
1491432387593,-7, -6, -2, -3, 4, -1, -4, -3
1491432387594,3, 7, 3, 1, -1, 2, 0, -3
1491432387600,0, -6, -1, 1, 4, 3, -3, 4
1491432387615,11, -1, 0, -2, -7, -3, -1, 2
1491432387623,7, 15, 1, 0, 2, -1, 0, -3
1491432387632,8, 1, 0, 0, -2, 0, 2, 3
1491432387645,-3, 2, -2, 1, -1, -3, -2, -5
1491432387646,-5, -11, -4, -2, 0, -5, -2, 0
1491432387653,-2, 9, 8, 1, -1, -1, -1, 0
1491432387654,-1, 3, 0, 0, -1, -2, -1, 0
1491432387660,-2, -2, -1, -1, 3, 0, -1, -5
1491432387675,1, -7, -2, -2, -1, 2, -1, 1
1491432387676,-5, -8, -3, 0, -4, 3, -1, 3
1491432387683,-5, -4, 0, 0, -3, 1, -1, -7
1491432387684,-2, 9, -7, -1, -2, 0, -1, 0
1491432387691,-3, -11, -5, -2, -1, -2, -1, -1
1491432387705,3, 3, 4, 1, 2, 0, 3, 0
1491432387714,-6, -10, -8, -1, -2, -1, 0, 0
1491432387727,15, -7, -4, -1, 0, 2, -1, -3
1491432387735,-8, -8, -4, -2, 0, -3, -4, -9
1491432387743,-5, -5, 4, 2, -4, -5, 1, -4
1491432387758,1, 8, 3, 0, -1, -1, 1, 0
1491432387767,-13, -6, 0, -1, 1, 1, -1, -4
1491432387774,-24, -1, 2, 0, -3, 0, -1, -7
1491432387787,17, 14, 0, 1, 0, -3, 1, 4
1491432387795,7, 2, -1, 1, 0, -3, 1, 2
1491432387803,-1, -2, 1, -4, -2, -2, -4, -4
1491432387818,-2, 6, 0, -3, -2, -1, -2, -3
1491432387825,-11, -8, -3, -1, -2, 2, -4, 1
1491432387834,3, -4, 0, 1, 1, 0, 0, 3
1491432387847,6, -3, 1, -1, -2, -4, -2, -1
1491432387856,26, -5, -4, -4, 1, 1, -3, 0
1491432387863,4, -6, -2, -4, -1, 0, 0, -3
1491432387878,25, 6, 5, 0, 1, -2, 4, 5
1491432387885,-1, -4, 0, -2, -5, -1, -1, 1
1491432387886,-20, -4, -2, 2, 0, 2, -2, 0
1491432387894,7, -3, -4, -2, -1, 0, -4, -3
1491432387908,-27, -3, -1, 2, -2, 1, 0, -6
1491432387916,-13, -1, 0, -2, -1, -1, -1, 1
1491432387923,24, -5, -3, 0, 1, 1, 1, 3
1491432387938,-2, 1, -1, -2, 1, -3, -4, -2
1491432387939,-21, -3, -3, 2, 2, 1, -1, -1
1491432387945,1, -9, -3, 0, -3, 0, 4, 0
1491432387954,-15, -3, -6, -2, -1, -3, 0, -2
1491432387967,-9, -5, -2, -1, -1, -1, -2, -2
1491432387968,17, 4, 4, 2, 0, -4, -2, 3
1491432387976,8, 0, -2, -2, 2, -2, -1, 1
1491432387983,16, 3, 1, 14, 2, 1, -2, 3
1491432387998,-22, -4, -3, -2, 2, 0, 0, -6
1491432388000,-1, -2, 0, -4, -7, -1, -1, 0
1491432388005,-15, -2, 2, -3, 0, 2, 1, -3
1491432388006,47, 3, -3, -6, -4, -1, -3, 4
1491432388014,9, 2, 1, 2, -4, -3, -3, -4
1491432388028,-8, -1, 3, -2, 0, -2, 0, -3
1491432388036,-6, -7, -4, -4, -4, -4, -2, -7
1491432388043,-4, 1, -2, -4, 0, -2, -2, 0
1491432388058,5, -1, 4, 3, 2, 3, 1, 0
1491432388065,9, 0, 1, 16, 2, 0, -1, 0
1491432388066,-29, -1, -4, -7, 0, 1, 1, -1
1491432388074,0, 6, -2, -5, -3, -3, -2, 3
1491432388087,-15, 0, -2, -6, 0, -4, -1, -3
1491432388097,-1, 1, 1, -4, -3, 2, 2, -1
1491432388104,-24, 0, 1, 3, -2, 2, 2, -3
1491432388118,76, 9, 0, 2, -1, -4, -6, 4
1491432388126,8, -4, -2, -6, -3, -1, 0, 2
1491432388135,-10, 4, 0, 2, 2, 1, 2, 7
1491432388148,-31, -3, 2, 25, 8, 0, -1, -5
1491432388155,-3, -4, -3, -11, -2, -1, -1, -10
1491432388163,22, 2, -5, -12, -2, -1, -2, 4
1491432388178,-41, -13, -3, 2, 1, -5, 0, -4
1491432388187,11, 2, 0, -12, -4, -2, -1, -5
1491432388194,-6, -2, 3, 37, 15, 6, 5, 2
1491432388207,-2, 0, 4, 3, 6, 5, 0, 5
1491432388215,-32, -4, 0, -9, -4, 1, -4, -5
1491432388223,1, -8, -4, -5, -2, -5, -3, 0
1491432388238,-17, -2, -3, -3, -3, -2, -2, -3
1491432388245,5, 1, 0, -7, -5, -4, 0, -3
1491432388253,-43, -11, -2, 15, 5, 0, 3, -6
1491432388267,-20, -9, -4, 2, -3, -2, 0, -7
1491432388276,2, 0, 2, -11, -5, -3, -1, 1
1491432388283,6, -3, -4, -1, 3, 2, -1, 0
1491432388298,11, -6, -2, 3, 1, 3, -3, 3
1491432388305,7, 2, 0, -3, -4, -1, -1, -2
1491432388314,13, 2, 1, -8, -5, -1, -2, -2
1491432388327,-13, -7, -2, -2, -1, -1, 5, 0
1491432388328,2, -1, 1, 5, -2, 2, -7, -2
1491432388337,9, 2, -3, -3, -1, 3, 2, 1
1491432388343,15, -2, 4, -14, 0, 1, -2, -2
1491432388358,-4, -8, -6, 6, 3, -2, -2, -3
1491432388365,-17, 4, -1, -2, -5, -1, 4, 4
1491432388373,13, -3, -4, -8, -9, -4, 0, 0
1491432388387,21, 1, -3, 2, -2, -1, -1, 0
1491432388396,-21, -4, -4, -18, -4, 0, 0, -5
1491432388403,-12, -2, -5, -1, 4, -1, 8, 5
1491432388418,8, 2, 2, -6, 0, -2, 2, 2
1491432388425,-4, -7, -2, 3, 0, -1, -4, -2
1491432388433,-9, -2, -3, -3, 0, -2, -3, -4
1491432388447,-20, -8, -3, -4, -5, -1, 1, -6
1491432388455,-1, 2, -2, 17, 5, -1, -2, -2
1491432388456,-9, -7, 0, -1, -1, 0, -6, -3
1491432388463,-11, 15, 2, 0, -4, -3, -4, -4
1491432388478,-12, -3, -2, 5, 1, -2, 3, 2
1491432388485,0, 7, 0, -1, 1, -3, -1, 0
1491432388486,-8, -21, -1, -6, -1, 0, 1, 2
1491432388494,-25, 1, 2, 4, -2, -1, -1, -3
1491432388507,-17, -10, 3, 6, 1, 0, 2, 2
1491432388515,32, 2, -2, -18, -6, 0, 0, 9
1491432388523,-22, -3, -5, -7, -3, -2, -1, -13
1491432388538,7, 9, 6, 18, 6, 0, -2, -4
1491432388545,17, 4, 1, 17, -2, -3, -6, 3
1491432388553,-3, 5, -4, -11, -3, 1, -1, -1
1491432388567,27, 25, 6, 0, 0, 0, 4, 4
1491432388576,17, 1, -3, 7, 1, -1, -3, 2
1491432388583,7, 0, 1, -3, 1, -1, -4, -2
1491432388600,-15, 1, 1, -2, 2, -1, 3, 2
1491432388607,8, -4, -3, -16, -2, -2, -2, 2
1491432388613,1, -10, -4, -3, -3, -2, 0, -6
1491432388627,-9, 30, 7, -5, 0, -2, -1, 0
1491432388635,0, 1, 0, 1, -5, -5, -1, 3
1491432388650,-4, -12, -6, -8, -3, 0, 0, 0
1491432388658,7, 1, 0, 27, 10, 3, 3, 10
1491432388665,-2, 0, -3, -2, 1, -4, -2, -9
1491432388666,18, -9, -2, 3, 0, 1, -3, 0
1491432388685,-13, 3, 2, -11, -7, 0, -3, -5
1491432388687,-26, -13, 1, 10, 1, 1, -3, -6
1491432388696,-22, -5, -3, -11, -2, -5, 0, -1
1491432388710,-24, -7, -3, -5, 0, -3, 0, 1
1491432388718,13, -3, -4, -9, -5, -1, -7, -8
1491432388725,20, -2, -1, 1, 2, 1, 2, 0
1491432388747,42, -1, -1, 13, 1, -2, 1, 5
1491432388748,-34, -18, -5, -9, -3, -3, -2, -15
1491432388749,32, 32, 14, 9, 1, -5, -5, -2
1491432388756,8, 1, 1, 3, 0, 2, 1, -2
1491432388770,7, -6, -5, -2, -1, 3, 3, -3
1491432388778,21, -5, -5, -21, -9, -1, -6, -6
1491432388785,-28, -18, -11, -9, 1, 4, 2, -3
1491432388800,24, 15, 2, -12, 0, -2, 2, 4
1491432388801,-6, -26, -4, 17, 6, 1, 3, -1
1491432388808,4, -7, -3, -5, -7, -6, -1, 3
1491432388816,-18, 0, 2, 13, 1, 2, 2, 1
1491432388830,-10, -4, 1, 6, -1, -2, 0, 6
1491432388840,1, 12, 8, -7, -2, -1, 0, -1
1491432388853,6, -1, -3, 1, -1, -1, -1, 0
1491432388860,0, 9, 1, -13, -1, 1, 1, -2
1491432388875,-25, -9, -2, 14, 2, 2, -3, -12
1491432388876,36, 7, 1, 21, 1, -2, 2, 3
1491432388877,-1, 0, 3, -8, -3, -6, -5, -3
1491432388890,-22, 2, 1, -3, -2, -3, 1, 4
1491432388899,11, -2, 1, 22, 4, 1, 0, 6
1491432388905,1, -10, -9, -8, -5, 1, 0, 1
1491432388906,10, 8, -1, 0, 1, 0, -8, -7
1491432388920,-11, -4, -3, -8, 0, 2, 1, -2
1491432388927,14, 3, 1, 1, 1, -1, -3, -2
1491432388936,-16, -3, -3, -6, -1, -4, 2, -1
1491432388950,4, 4, -1, -5, -4, -7, 1, -1
1491432388958,-7, 0, 0, 7, 2, 1, 3, 8
1491432388966,-26, -15, -6, -9, -3, 2, 3, -3
1491432388980,-49, -12, -7, -21, -4, -1, -3, 1
1491432388987,-15, -7, -2, -3, 1, 3, 0, -1
1491432388995,22, 19, -1, -5, -7, -3, -5, -3
1491432389010,-7, -12, -6, -1, -1, -2, -2, -3
1491432389020,-28, -7, 0, -2, 3, -5, -8, -13
1491432389026,31, 8, 3, 5, 5, 2, 1, 9
1491432389040,2, 0, 1, 16, 1, 0, 0, -4
1491432389047,-9, -2, 3, 1, -2, 0, 2, -3
1491432389055,-18, 3, 3, 0, 0, -2, 0, -1
1491432389056,29, -2, -6, -10, -4, -1, -3, 2
1491432389071,23, 1, -4, -17, -7, 0, -4, 5
1491432389078,28, 0, -2, -13, 0, -7, 0, 2
1491432389085,-6, -2, -1, -13, -1, -17, -8, -20
1491432389100,12, 1, 2, 46, 15, 4, 5, 8
1491432389107,-19, -6, 0, 20, 3, 14, 2, -4
1491432389116,4, 2, -1, -14, -10, -3, -8, -13
1491432389130,-16, -4, -3, -3, -1, 1, 2, 5
1491432389138,-1, -1, 1, -6, 3, 1, 1, -10
1491432389145,15, -7, -2, -3, -5, -9, -8, -10
1491432389160,15, 9, 3, -7, -2, 1, 5, -25
1491432389168,-4, 6, 4, 6, 4, 5, 12, 57
1491432389176,-18, -12, -3, -7, 0, 2, -2, -6
1491432389190,29, -1, 0, 0, -2, -2, 3, -6
1491432389198,2, -2, -1, -3, -6, -2, 1, 15
1491432389205,-11, -8, -2, -4, 3, 0, -1, -6
1491432389220,8, -3, -3, -3, -3, -1, 1, 3
1491432389228,-16, 2, 1, 1, 1, 2, -6, -17
1491432389236,-63, 3, 1, 0, -2, 3, 0, 0
1491432389250,9, 2, -5, -17, -10, -9, -6, -13
1491432389258,0, -6, -1, 22, -3, 1, 0, 5
1491432389265,8, 4, -2, -1, 1, 7, 0, 10
1491432389280,-16, -5, 1, -13, -2, -3, 8, -4
1491432389281,6, 5, -6, -13, 2, -4, -6, 2
1491432389288,-16, -6, -2, -5, -4, -4, -6, -3
1491432389296,31, 4, 2, 1, 0, 3, -4, 5
1491432389310,8, 9, 7, -1, -2, -5, -2, -1
1491432389318,-4, -10, -1, 3, -2, 1, 1, 0
1491432389325,23, -3, -5, 4, 1, -1, -2, -2
1491432389340,49, 6, -2, -9, -3, -3, 0, 6
1491432389348,-32, 20, 19, 14, 2, 5, 2, -10
1491432389356,-14, -12, -2, -14, -3, -2, -7, -4
1491432389370,-7, -5, -11, -4, -1, -6, 0, -11
1491432389378,18, 11, 4, -1, 1, -3, 5, 6
1491432389385,38, 4, 1, -2, 2, -1, 2, 14
1491432389400,-14, -13, -6, -1, -3, -1, 1, 1
1491432389408,-8, -18, -6, 8, 1, 0, 1, -2
1491432389416,-12, -8, 3, 10, 4, 6, -2, -3
1491432389430,2, 1, 3, 4, 0, 0, -2, -2
1491432389438,-17, 2, -1, -3, 5, 0, -2, 5
1491432389445,2, 9, -5, -8, -1, -3, -6, -16
1491432389446,-17, -9, -4, 0, 0, 0, 3, 4
1491432389460,-11, -4, 0, -7, -6, -2, -2, 0
1491432389468,-19, -2, -1, 49, 13, 1, -4, 0
1491432389483,23, 4, 4, -10, -1, 1, -11, 4
1491432389490,-12, -6, -9, -24, -12, -6, -4, -3
1491432389498,40, 2, -1, 13, 0, -4, 1, 8
1491432389505,-8, -5, -6, -12, -4, -2, 0, -13
1491432389522,-6, -2, -5, -6, -7, -5, 4, 0
1491432389529,14, -2, 0, -1, 0, 1, 6, -10
1491432389536,-27, -23, -5, -5, -2, 0, -2, -11
1491432389550,22, -3, -2, -4, -3, 1, 2, 8
1491432389558,-19, -2, 1, 7, 0, 1, 3, -12
1491432389574,6, 0, 3, -7, 2, 1, 4, 5
1491432389580,-8, 0, 2, -17, -1, -3, -1, 1
1491432389589,8, 9, 1, -3, -4, -2, -11, -1
1491432389604,-42, 4, -3, -4, -2, 1, 8, -6
1491432389610,-19, -7, 0, 1, 1, 0, 2, 2
1491432389618,-1, -12, -3, -2, -3, -2, -13, -15
1491432389632,-6, 4, 2, 1, 1, 0, 0, 1
1491432389640,-22, -8, -3, -5, -2, -2, 6, 7
1491432389648,1, -2, -1, -9, -5, 3, -1, -2
1491432389663,18, 11, 1, 11, 4, -1, 2, 1
1491432389669,-2, -1, -7, -8, -4, -1, 0, 1
1491432389678,17, -1, 0, -9, 0, 3, -3, 0
1491432389693,14, -6, -1, -2, 2, 1, 0, 8
1491432389701,-6, 14, -2, -5, -2, -4, 1, 1
1491432389708,-38, -5, 0, 2, -4, -2, 1, -5
1491432389723,-3, -6, -1, 10, -1, 1, -3, -2
1491432389730,14, 6, -3, 0, -4, -3, -7, 1
1491432389739,-5, -1, 1, 7, 1, 3, 1, 1
1491432389753,17, 5, 4, 2, 3, 0, 2, -1
1491432389760,36, 10, 7, 13, 1, -2, -8, 4
1491432389768,-16, -5, -2, -8, -5, -1, -4, -5
1491432389783,-5, -9, -6, -6, 0, 0, 1, 2
1491432389790,7, -6, -5, -3, -3, -4, 1, 2
1491432389798,1, -8, -5, -5, -4, -4, 6, -2
1491432389813,2, -6, 2, 2, 5, 3, -1, -3
1491432389820,-8, 0, 1, -1, -1, 2, -5, -5
1491432389828,-9, 2, 2, 1, 2, 1, 3, -2
1491432389843,-3, 4, 4, 0, 2, -4, -1, -7
1491432389849,-18, -5, -5, -2, 2, -3, -1, -1
1491432389850,32, 2, -2, -2, -5, -5, -4, -1
1491432389858,-4, -4, -2, -2, -4, -3, 5, 0
1491432389873,3, 11, 6, 3, 0, -4, -8, 2
1491432389880,-8, -5, -1, -8, -2, 1, 3, -1
1491432389895,-15, -12, -7, -3, -2, 0, -2, -5
1491432389903,3, 4, -2, -18, -4, -1, 0, 4
1491432389910,-11, -4, -3, -2, 0, -2, 0, -5
1491432389918,-9, 2, -1, 3, -1, 1, -6, -6
1491432389933,-6, -1, -1, 1, -1, -1, 2, 3
1491432389941,13, -3, -4, 1, -1, -1, -4, -1
1491432389949,-2, 0, 1, 3, 5, 0, 3, 0
1491432389963,2, 8, 0, 4, 1, -3, -7, -7
1491432389970,-4, -2, -1, -2, -3, -2, 2, 0
1491432389978,-6, -9, -2, 13, 6, -1, 4, 0
1491432389994,1, 5, 2, -2, -6, -3, 0, -2
1491432390000,-8, -9, -1, 1, -3, 1, 5, 3
1491432390008,-3, -16, -8, 1, -1, -2, 2, 4
1491432390023,1, -1, -2, 1, 2, -5, -1, -3
1491432390030,0, -2, -1, -5, -4, -2, -7, -4
1491432390039,4, 2, 0, -2, -1, 4, -1, 1
1491432390053,-1, 4, -2, 1, 3, 3, -1, 1
1491432390060,9, -5, -2, -5, 0, 3, -4, 1
1491432390068,3, 1, 3, 9, 6, -2, 2, 0
1491432390083,-3, 7, 5, 29, 7, -4, -3, 0
1491432390090,-9, -4, -4, -6, -2, 2, -2, -2
1491432390098,3, 2, -3, -8, -4, -3, -1, 1
1491432390113,-6, -4, 1, 2, -1, -3, -20, -6
1491432390120,-2, 6, -2, 2, -5, -2, -2, -8
1491432390121,-13, -7, -3, -9, -3, 0, 4, 7
1491432390128,2, -5, -4, -6, -3, 5, 5, -7
1491432390143,-6, -8, -3, -2, 2, 1, -3, -1
1491432390150,6, -3, -1, -3, 1, -3, 4, 20
1491432390158,-5, 1, -1, -1, -4, -1, 1, -5
1491432390173,-1, 1, 1, -4, -4, 3, 2, 0
1491432390180,-5, -6, -1, -6, -5, -1, 1, 2
1491432390188,11, 6, 0, 0, 2, -1, -3, 1
1491432390190,-10, -11, -6, -7, 0, -2, -3, 0
1491432390210,1, -4, -6, -15, -4, -3, -3, -5
1491432390218,-6, 2, -1, 2, 1, -1, -1, 5
1491432390233,0, 6, 4, -1, 0, 2, 5, -7
1491432390241,6, 3, -5, -2, -2, 0, -6, -2
1491432390248,2, 2, -2, 5, 1, -1, 5, -2
1491432390263,3, -2, 0, -3, -5, -7, -1, 0
1491432390269,0, -5, -7, 4, 0, -1, -6, 0
1491432390270,-5, 0, 6, 7, 1, 0, -4, 2
1491432390278,-1, 7, 3, -4, 1, 1, 7, -2
1491432390292,1, -4, -1, -2, -2, -1, -3, -6
1491432390300,-1, -4, -4, -9, -2, 1, 4, 4
1491432390308,2, 7, -2, -2, -2, -1, 5, 1
1491432390323,-8, -10, -4, 2, 1, 3, -2, 0
1491432390330,1, 4, -2, -4, -2, -7, -2, 2
1491432390338,3, 1, 1, 0, 0, -3, -1, 1
1491432390352,-2, -7, 1, -1, 0, 0, -6, 0
1491432390360,6, 0, -2, -6, -5, 2, 0, 0
1491432390368,-3, -5, 0, -4, -3, 0, 6, -3
1491432390383,-3, -1, 1, 0, 0, -1, 3, -4
1491432390389,-1, 6, -3, -8, -4, -4, -2, -4
1491432390390,5, 1, 0, 18, 4, 3, 0, 4
1491432390398,1, -3, -4, 1, 3, -1, -3, -1
1491432390413,-4, 1, 3, 10, 5, -3, -1, -2
1491432390420,0, 9, 2, 0, -5, 1, -1, -4
1491432390428,3, 11, -3, -13, -4, 2, 0, 0
1491432390443,-3, -5, -1, 3, 2, 1, 4, 3
1491432390453,-2, -3, 1, 1, 1, -2, 2, 0
1491432390458,-1, 0, 2, -7, -1, -1, -4, 0
1491432390474,2, 1, -2, -4, -2, -2, -12, -1
1491432390480,0, 5, 3, 0, -2, -3, -5, -6
1491432390496,4, 1, -2, -1, -4, 0, 3, 1
1491432390503,-1, 2, 1, 3, 3, -1, -4, -2
1491432390511,2, -4, -3, -4, 1, 2, 0, 1
1491432390528,2, -5, -2, -1, -1, -1, -5, 1
1491432390533,-6, -11, -4, -1, -2, -2, -6, -3
1491432390540,-4, -5, 1, -1, -4, -1, 5, 6
1491432390556,-3, 5, 5, -3, -1, 3, 6, -11
1491432390563,5, -2, -5, -10, -3, -6, -2, -8
1491432390571,-2, -10, -4, 11, 0, 0, 5, 1
1491432390585,3, 12, 4, -13, 2, 4, 2, 1
1491432390586,-6, -8, 4, 36, 11, 0, 0, -6
1491432390594,-6, -16, -8, -4, -3, -3, 0, 5
1491432390601,0, -4, -8, -7, -3, -4, -6, 7
1491432390617,-3, -7, 1, -4, -3, -2, -7, 1
1491432390623,-5, -7, -7, -11, -5, 2, 0, -13
1491432390631,0, 4, 1, -8, -4, -2, -5, -3
1491432390645,-3, -9, -1, -3, 3, 1, 1, 2
1491432390653,-2, -2, -3, -2, 4, 0, -3, -15
1491432390661,-5, -1, -2, 1, -2, 2, -10, -1
1491432390662,-3, -5, -4, -6, -2, 0, 2, -2
1491432390676,4, -7, -4, -9, -1, 0, 2, 1
1491432390683,-2, 5, -1, -6, -1, -2, -2, -3
1491432390691,-2, 0, 1, 6, -2, -2, 3, 4
1491432390705,6, 9, 1, 5, -1, -1, -4, 8
1491432390713,2, 10, 2, -2, -1, -1, -2, 13
1491432390720,10, 23, 7, 1, -1, 0, -1, -6
1491432390737,-6, -6, -2, -6, -3, 3, 2, -12
1491432390743,-2, 1, 1, -9, 0, -3, 3, 7
1491432390751,2, 4, -4, -17, -8, -1, 4, 5
1491432390765,-3, -11, -4, -7, -3, -3, 4, -6
1491432390773,-3, -7, -5, -2, -3, -1, 3, -3
1491432390780,1, -3, -1, 1, 0, 0, 1, 4
1491432390796,-5, 2, 0, 8, 3, 0, -6, -24
1491432390803,-1, -3, 0, 2, -2, 1, 2, -1
1491432390811,-2, -2, 4, 11, 2, -1, -4, 0
1491432390825,-2, -10, -6, -6, -6, -3, -3, 6
1491432390843,2, 8, 3, 2, 0, 0, 0, -1
1491432390856,8, 7, 2, 4, 1, -5, -4, 2
1491432390864,-2, -8, -3, 1, 0, 1, -2, -5
1491432390878,-3, -2, -3, 2, 0, -5, 6, 1
1491432390885,-7, -7, -2, 4, 1, 1, -9, 0
1491432390893,-2, -4, 1, 2, 1, 3, 1, -1
1491432390900,-1, 5, 3, 4, 0, -4, -1, -6
1491432390916,-5, -5, -2, 0, -2, -3, -6, -3
1491432390923,-3, 3, 5, 4, 0, -2, -10, -7
1491432390938,-1, -1, 2, 3, -1, 3, -4, 1
1491432390947,-4, -13, -2, -1, -1, 2, 2, 2
1491432390948,5, 4, -4, -4, -3, 3, 3, 12
1491432390954,1, 3, 2, -3, 1, 0, -4, -1
1491432390960,-8, -7, -3, 3, 3, 3, 5, 2
1491432390976,-9, -5, -5, -4, -1, 1, -1, -18
1491432390983,-1, -1, -2, -4, -1, -3, -6, -6
1491432390998,-3, -5, 1, 4, -2, -5, -4, -5
1491432391005,-7, 1, 4, -3, -4, -6, -4, -20
1491432391013,3, -4, -4, -9, -5, 0, 2, -10
1491432391020,-4, -5, -3, -7, -3, 3, 4, 0
1491432391036,0, 1, -2, 4, 4, 3, 7, 5
1491432391043,-7, 2, 1, -3, 1, 2, -13, -16
1491432391044,5, -2, -3, -1, 1, 0, 0, 8
1491432391058,1, -2, -3, 3, -1, -3, -2, 11
1491432391065,2, -6, -3, -3, -3, -1, 0, 9
1491432391073,4, 9, 5, 5, 1, -4, 2, 42
1491432391081,0, -7, -3, -3, -1, -3, -2, 11
1491432391096,3, 16, 2, 3, 2, 2, -3, -6
1491432391103,-2, 2, 2, 1, -4, 2, 6, -1
1491432391111,-5, -5, -1, -3, -7, -4, -4, -16
1491432391125,-3, -1, 1, -3, -3, -3, -3, -13
1491432391126,2, -1, -3, -2, 0, -4, 4, -3
1491432391133,-2, -13, -1, -3, 13, 2, -21, -4
1491432391140,3, 9, 8, 9, 4, -5, -5, -5
1491432391156,0, -5, -3, -3, -1, -2, -1, -5
1491432391163,-5, -8, -3, -3, -8, 5, 2, -26
1491432391171,6, 5, -1, -2, -9, -2, -1, -4
1491432391185,0, 3, 0, 0, 12, -1, 1, 3
1491432391193,-4, -9, -5, 2, -1, 2, -1, 0
1491432391200,-3, 6, -2, -1, -4, -1, -4, 3
1491432391216,-4, -5, 2, -1, -5, -5, 3, -16
1491432391223,0, -1, -4, -3, -1, -4, -5, 1
1491432391239,-5, 0, -1, -2, -4, -2, -2, -5
1491432391245,-1, -1, 1, -3, 2, -2, -5, -1
1491432391268,1, 2, -4, 0, -2, -1, 1, 8
1491432391269,3, 5, 1, 1, -4, -3, -12, 9
1491432391276,-6, -2, -3, -3, -2, 3, 6, 18
1491432391283,-1, -7, -2, -4, -2, 1, 5, 0
1491432391298,-1, -4, -2, -3, 1, 1, 0, 2
1491432391305,1, -8, -4, 1, -3, -1, 3, 3
1491432391314,3, 2, 3, 1, 0, 1, -8, -1
1491432391320,-3, 0, -2, -2, -6, 0, 0, -5
1491432391336,-1, 6, 5, 2, 3, 2, 5, -3
1491432391343,3, 0, -3, 1, -1, 0, 0, 2
1491432391358,-4, -2, -2, -1, 10, -1, -8, -3
1491432391359,0, -2, -3, -4, -4, 0, -1, -4
1491432391365,0, 4, 2, 5, 0, -2, 4, 9
1491432391377,-1, -7, -5, -4, -9, -6, -3, -10
1491432391378,0, 4, 1, 0, 4, -4, 3, 2
1491432391380,-4, -5, 0, -2, -5, 0, -1, -2
1491432391396,-3, -9, -2, -1, -6, -1, -2, -15
1491432391403,-4, -1, -1, -2, -4, 0, -3, -8
1491432391418,3, 0, -1, -2, 2, -2, 1, -4
1491432391425,-1, -2, -1, -10, -4, 0, -5, -1
1491432391433,-3, -4, -2, 14, 6, 3, 1, 5
1491432391449,-1, -3, 1, 18, 15, 2, 5, 5
1491432391456,2, 1, -3, -6, -3, -4, -3, 4
1491432391463,0, -4, -4, -6, -8, -4, 0, -2
1491432391480,-2, 2, -1, 12, 4, -3, 2, 3
1491432391485,0, -1, -2, -24, -3, 3, 0, -2
1491432391494,0, 12, 2, -8, -6, -2, -2, 0
1491432391508,0, 1, 1, 0, 0, -2, 0, -3
1491432391517,0, 0, 0, -2, 1, 1, 0, -3
1491432391523,-4, -1, 2, 4, 4, -1, 1, -1
1491432391538,1, 0, -2, -14, -7, -4, -2, 0
1491432391547,2, -2, 3, 14, 3, -1, -2, 0
1491432391548,2, 3, -2, 6, 3, 2, 1, 1
1491432391555,-3, -7, -4, -2, -1, 0, -8, 1
1491432391568,-6, -3, -2, 0, 4, 1, -3, -6
1491432391576,2, 5, 1, -2, 3, 1, -1, -4
1491432391584,-1, -6, -1, 3, -1, -2, -1, 1
1491432391585,3, -1, 0, 3, -2, 2, -1, 0
1491432391598,0, -18, -4, 9, -1, 1, 4, 6
1491432391605,-11, -5, 0, 17, 10, -2, 1, -1
1491432391614,5, -2, 0, -8, 0, -3, 1, 1
1491432391615,-1, 2, -1, -3, -3, -3, -2, 1
1491432391628,1, -1, 3, 23, 2, 3, -2, -1
1491432391636,-1, -6, 0, -4, -1, 0, 2, 3
1491432391643,-7, -2, -2, -2, -8, -8, -4, -9
1491432391659,0, -6, -3, -3, -1, -4, 3, 2
1491432391665,8, 1, -3, -12, -3, 0, 0, 5
1491432391673,-7, -7, -2, -4, -5, 0, 5, -2
1491432391688,-17, -2, 1, -5, 9, 1, -1, 10
1491432391696,6, 6, -1, -4, 2, -3, -2, -5
1491432391703,6, -9, -5, -8, -8, -2, -1, 2
1491432391718,-12, -4, -4, 0, -5, 0, -5, -14
1491432391725,14, 14, 5, -3, -1, -1, 1, 4
1491432391733,-6, -13, -8, 0, 0, -6, 1, -4
1491432391734,9, 2, 6, 3, 0, -1, 4, 5
1491432391748,-2, -15, -5, -6, -7, -3, 1, 0
1491432391756,-21, -12, -5, 2, -1, -5, -2, -3
1491432391763,-5, 1, 0, -1, -4, 1, -3, 1
1491432391780,-3, 15, 6, -3, -4, 4, -5, -2
1491432391785,5, 14, -1, -8, -4, 1, -4, -6
1491432391796,3, -9, -6, -3, 1, 0, -5, -4
1491432391808,-7, -12, -4, -1, 2, -1, 1, -2
1491432391816,5, 3, 1, 0, 2, 3, 0, 7
1491432391823,-4, -3, -1, -1, -1, -1, -9, -11
1491432391841,-13, -2, 0, -1, 1, 1, 1, -4
1491432391852,26, 0, -2, 1, -1, -1, 3, 10
1491432391853,2, -4, 0, 0, -2, -6, 2, 2
1491432391854,-12, 1, 0, 2, -1, -4, -2, -3
1491432391868,-3, 1, -2, -1, 2, -3, 0, -4
1491432391876,5, -2, 4, 0, 0, -1, 1, 2
1491432391883,19, 4, 1, 0, -2, -2, 0, -1
1491432391898,16, 10, 0, 0, -1, -1, -3, -1
1491432391905,-8, -8, 0, 0, -3, 1, 1, 1
1491432391921,2, -9, -4, -2, -1, -4, 3, 2
1491432391928,-4, -8, -3, -1, -2, 0, -2, -7
1491432391936,7, -3, -2, -1, -4, -2, -2, 1
1491432391943,-7, -5, -1, 0, 2, 4, 1, 2
1491432391958,14, 4, 4, 0, -1, 4, 0, 8
1491432391965,-17, -4, 2, 0, -1, 2, 0, 2
1491432391981,0, -7, -6, -1, 0, 1, -1, -6
1491432391988,-12, 0, 3, -2, -3, -1, -2, -2
1491432391996,-33, -17, -4, -1, -2, 0, 0, -4
1491432392003,3, 3, -3, -2, -3, -2, -1, -1
1491432392018,11, 3, -2, -3, 5, -2, -2, -1
1491432392025,3, 16, 4, -1, 3, -1, -4, -8
1491432392026,-13, -5, -4, -1, -1, 2, 0, 2
1491432392033,20, 1, 2, 1, -3, -1, 1, 6
1491432392048,22, 0, -2, -1, 0, 0, -1, 1
1491432392056,-6, -3, -1, -1, -2, -4, -1, -3
1491432392063,10, 5, -1, -3, -2, -4, -3, -6
1491432392078,-9, 3, -2, 0, -1, -3, -3, 0
1491432392085,-1, 1, 2, 2, 2, -1, -1, 0
1491432392093,-2, 0, 1, -3, 2, -1, -1, -4
1491432392108,-6, 3, -4, 0, -2, -2, -2, -1
1491432392116,9, 19, 5, -1, -4, 1, -3, 5
1491432392123,2, 8, 2, 1, -3, 1, 2, -1
1491432392138,0, 4, -4, -2, 1, -2, 2, 3
1491432392145,0, -2, -1, 2, 0, -1, 1, 0
1491432392154,0, -6, 1, -1, 1, 1, -1, -3
1491432392168,-2, -2, 1, -1, -2, -3, -1, -3
1491432392176,-11, -11, -1, -1, -5, -1, 1, -6
1491432392183,5, -3, 0, -2, -1, 3, -1, 2
1491432392198,0, -9, -9, -1, -1, -3, -2, -2
1491432392205,-1, -9, -4, -1, -3, -3, -1, -3
1491432392214,1, -4, 0, 0, -2, 0, 0, -7
1491432392228,3, 1, -3, -2, 3, 1, 0, 1
1491432392236,-8, -1, -1, 2, 1, 2, -1, 3
1491432392243,-3, 1, 2, -1, -1, 0, 3, -1
1491432392258,-7, 0, -1, -1, -2, -2, -2, -2
1491432392265,-3, -4, 1, -1, -2, -3, -4, 2
1491432392274,-15, -9, 0, -1, 0, -5, -2, -3
1491432392288,-6, -9, -5, -1, 2, -1, 0, -2
1491432392296,3, 3, 0, -1, -2, -2, -1, 0
1491432392303,-12, -3, -2, -1, -1, 1, -3, -6
1491432392318,-3, 0, -3, -1, -1, 3, -2, -1
1491432392325,25, 3, 0, -3, 2, -1, -1, -1
1491432392333,5, 6, 2, 0, -2, -1, 1, -5
1491432392348,-5, 2, -1, -1, -4, -3, 2, -2
1491432392356,5, -5, -2, -1, 3, -1, -1, 1
1491432392369,-13, 3, 4, 0, 1, -2, -2, -4
1491432392370,9, 2, 0, -1, -1, -6, -2, 2
1491432392378,6, 5, -2, 0, 2, 0, -1, -2
1491432392385,-8, -1, 0, 1, -2, 0, -3, -1
1491432392400,5, -4, -1, 0, -3, 0, 1, 1
1491432392408,10, -2, -1, 1, -2, -3, 1, 2
1491432392416,-21, -6, 0, 1, 0, -3, -2, -3
1491432392430,-11, -4, 0, -2, -2, 3, -1, -3
1491432392438,-4, -3, -1, 1, -2, 1, -1, 2
1491432392445,-14, -6, 0, 0, 2, -2, -3, -6
1491432392460,2, -2, -1, -2, 1, -1, 1, 0
1491432392475,6, -5, -3, -1, 2, 1, 3, 8
1491432392477,2, -6, 1, -2, -2, -3, -2, 2
1491432392490,-2, -5, -1, 0, -5, -3, -2, -5
1491432392498,-24, -10, -3, -2, -6, 0, -1, -3
1491432392499,12, 4, -1, -2, -3, 3, 3, 10
1491432392505,-4, -3, -1, -2, 1, -2, 0, -1
1491432392520,3, -2, 0, -3, 2, 1, -4, 0
1491432392528,2, 0, -1, -4, -6, -2, -8, 1
1491432392536,-6, -2, -1, -1, -4, 1, 6, -1
1491432392551,3, 3, 0, 0, 3, 1, 0, 3
1491432392558,-12, -9, -4, -2, -1, -1, -4, -17
1491432392565,-3, 7, 3, 1, -1, -3, -6, -11
1491432392582,-1, 0, -4, -1, -2, -3, -4, -7
1491432392588,-1, -2, -6, -2, -2, -1, 3, 3
1491432392596,2, 2, 1, -1, 0, -1, -4, -5
1491432392610,13, 1, 0, 0, -2, -1, 4, 15
1491432392618,5, -6, -1, 0, 1, -1, -1, 1
1491432392625,4, -2, -3, 1, 3, 2, -1, -16
1491432392640,17, -6, -1, -1, 0, 0, -3, -3
1491432392648,-5, -1, 1, 1, -3, -3, 2, -7
1491432392656,10, 2, -2, -1, 2, -2, 1, -3
1491432392670,-3, -3, -3, 0, 0, 2, 2, -1
1491432392685,-5, 1, 1, 0, 0, -3, 0, -1
1491432392686,0, -1, -1, -2, -1, -2, -2, 5
1491432392701,11, 5, -1, 1, 2, -5, 1, -2
1491432392708,22, -1, -5, 1, -2, 2, -4, 5
1491432392717,-8, 1, 2, -2, -2, 0, 4, 11
1491432392730,-64, -4, 0, -2, -3, -3, 1, -6
1491432392739,-14, -3, -2, -1, -3, 1, -3, -11
1491432392745,7, -3, -3, 0, 2, -1, -1, -3
1491432392760,23, 5, 0, 0, -1, 0, 0, 17
1491432392768,-16, -6, -3, -1, 1, -1, -2, 3
1491432392776,-11, -3, 0, -1, 0, 0, -1, 3
1491432392790,14, 1, 5, 0, 2, 6, 7, 0
1491432392798,-12, -9, -4, -1, -1, -1, 0, -5
1491432392805,-3, -1, 1, 0, -1, -1, -3, 3
1491432392820,6, 2, -2, 1, -3, 0, -3, -1
1491432392828,9, 0, 4, -1, -5, -5, 2, 18
1491432392836,-6, -5, -3, -6, -1, -3, -4, -2
1491432392850,3, 0, -1, -1, -2, 0, -1, -10
1491432392858,-15, -4, 2, 1, 3, 3, 2, -1
1491432392865,2, -1, 2, 0, 3, 2, -2, -2
1491432392880,0, 2, 0, 0, -1, 0, 1, 0
1491432392888,-1, -3, -5, -3, 0, -4, 4, -2
1491432392896,-30, -1, 2, 0, 0, -2, -2, -11
1491432392910,3, 3, -1, -2, -2, 3, 0, -1
1491432392918,5, -2, -3, -2, -2, 0, -1, 5
1491432392925,-5, -2, -3, 2, 3, -2, -6, -6
1491432392940,18, -3, -1, -1, 1, 0, 3, -1
1491432392948,5, -4, 0, -1, -1, 3, 0, -11
1491432392956,-16, 3, 3, 2, 2, 1, 1, 0
1491432392970,2, -2, -4, -1, 3, 0, 1, 2
1491432392978,-2, -5, -7, -3, -12, -8, -7, -15
1491432392985,23, 4, -1, 0, -1, -3, -2, 8
1491432393000,3, 2, 1, -1, 2, -1, 2, 14
1491432393008,7, -1, -3, -3, -7, -6, 1, -20
1491432393016,-10, -3, -1, 1, -1, 2, 1, 2
1491432393030,-35, -4, -2, -3, -5, -3, -2, -4
1491432393039,-5, -1, 0, -2, 1, -13, -11, -7
1491432393045,-9, -8, -3, -1, -1, 1, -4, 3
1491432393060,5, -3, -4, -1, -3, 5, -1, -1
1491432393068,1, 3, 3, 1, 2, 4, 1, 5
1491432393076,8, 0, -1, 0, 2, 3, 5, 10
1491432393090,31, 5, 1, 1, 3, 1, 1, 2
1491432393098,-17, -1, 1, 1, 1, -4, 2, 2
1491432393099,3, 2, 0, 0, -2, -4, -2, -3
1491432393105,-5, -3, -1, 0, -4, 0, 1, 19
1491432393120,5, 1, 1, -3, 2, 4, 1, -9
1491432393128,20, 1, 1, -1, 2, 1, -1, -1
1491432393137,-8, -6, 0, 1, 3, 3, 0, 4
1491432393150,-21, -8, -3, 0, 1, -3, -2, -8
1491432393159,1, 3, 1, 2, 3, 2, 3, 0
1491432393160,-11, -3, -1, -4, -8, -3, -2, 1
1491432393165,8, 6, 5, 2, 1, 1, -1, 5
1491432393180,2, 0, 2, 3, 5, 5, 5, 1
1491432393188,-2, -5, -3, -7, -8, -7, -6, 2
1491432393196,26, 4, -3, -2, -3, -2, -1, 21
1491432393210,-30, -5, 1, 2, -1, 3, 1, -8
1491432393218,-50, -8, -1, 1, 0, 0, 2, 1
1491432393225,3, -1, -4, -2, -5, -3, -1, 3
1491432393240,7, -1, 0, 1, 0, -1, -3, -12
1491432393248,-13, -4, -1, -7, -10, -5, -3, -10
1491432393256,13, -3, -2, -4, -2, -4, 3, -5
1491432393270,9, -1, 3, 2, 5, -2, 2, 0
1491432393278,6, 0, -2, -3, -3, -3, -2, -9
1491432393285,-23, -8, -4, 0, 2, 2, 0, -2
1491432393300,2, 4, -4, 2, 2, -1, 2, 12
1491432393308,5, -3, -7, -2, -4, -4, -1, 20
1491432393323,1, -3, 0, -2, -3, -1, -2, -1
1491432393330,-9, 1, 0, 2, 2, -3, -1, -4
1491432393339,14, 2, 0, -5, -5, 2, -3, -4
1491432393352,12, 0, 2, 1, 1, 3, -2, -8
1491432393360,2, -3, -1, 1, 2, 1, -1, -5
1491432393368,11, 3, 0, -2, -2, 0, -6, -12
1491432393383,-9, 2, 4, -1, -1, 0, 0, 0
1491432393390,-15, -10, -6, -2, -2, -1, 1, -10
1491432393398,18, 4, -2, 0, -3, -2, 1, -5
1491432393412,4, 2, 3, 1, -1, -3, -1, 0
1491432393421,14, -1, -1, 1, -2, -4, -2, 5
1491432393422,-3, -4, -3, -2, -5, -7, -5, -22
1491432393428,-6, -3, -4, -3, -4, 1, -2, 8
1491432393444,-9, 1, 1, -7, -6, -7, -7, -17
1491432393450,5, 0, 1, 0, 0, -1, -5, -1
1491432393459,-2, 1, 1, 2, 6, 3, -1, 9
1491432393473,5, 1, -2, 1, 5, -1, 2, 1
1491432393480,-12, -5, -2, 1, -1, -2, 2, 1
1491432393488,-4, -4, -3, -2, 2, 1, 2, -1
1491432393503,3, -6, -3, 8, 1, 0, -1, 5
1491432393510,1, -2, -4, 1, -1, -1, -10, -5
1491432393518,11, 0, 5, 0, 1, -1, 0, 0
1491432393532,16, 4, 2, 1, 4, 4, 7, 10
1491432393540,-14, 5, -1, -3, -3, -1, -5, -10
1491432393542,2, -7, -6, 0, -1, 2, -1, 5
1491432393548,-12, 1, 1, -1, -3, -1, 3, -20
1491432393563,-11, -8, -1, 0, 3, 1, 2, 1
1491432393570,7, -5, -6, -1, -2, -5, 0, -6
1491432393578,-15, 1, 0, 0, 1, 0, 1, 0
1491432393592,-19, -2, 0, -2, -2, 1, 0, -1
1491432393601,-15, -1, -3, -7, -7, -4, -2, -7
1491432393608,6, 8, -4, -4, -4, -1, -1, 19
1491432393623,-2, 7, -2, 2, 4, 7, -2, 3
1491432393630,21, -2, -2, 0, -1, 0, -1, -8
1491432393640,44, 3, 0, -1, -4, -5, 0, 5
1491432393652,-13, -6, -5, -6, -9, -6, -2, -1
1491432393653,16, 2, 5, 5, 1, 0, 2, 2
1491432393660,-3, -1, -1, -12, -5, -3, -3, 0
1491432393668,-4, -4, -1, -8, -9, -10, -3, -1
1491432393683,13, 4, 1, 0, 2, -2, 0, 3
1491432393690,38, 21, 16, 7, 6, 6, -2, 2
1491432393698,-15, -8, -3, -2, -3, 1, 2, -12
1491432393715,-11, -4, -3, 1, 1, -1, 1, 4
1491432393721,-7, -3, 2, 0, -4, 1, 0, 5
1491432393728,-27, -6, -4, -3, -1, 2, 0, -4
1491432393743,-35, -9, -6, 0, -1, -3, -3, -6
1491432393750,-6, -6, -5, -1, 4, -2, 0, 9
1491432393758,11, 2, 2, 2, -4, -2, 0, 6
1491432393772,-24, -5, 0, -1, -5, -3, -3, -9
1491432393780,-4, -4, -2, 0, 3, 0, -1, -4
1491432393787,-4, 3, -2, -4, 0, 1, 2, 7
1491432393788,-13, -5, 3, 1, 3, -2, -2, -3
1491432393803,-5, -10, -7, -4, 0, -3, -1, 1
