timestamp,1,2,3,4,5,6,7,8
1491505383495,0, 2, 5, -3, -1, 0, 1, 1
1491505383508,5, 5, 0, -1, -1, 1, 0, 1
1491505383517,-1, -3, -4, -4, -1, -2, -2, 0
1491505383523,-12, -2, -1, -1, -1, -1, 0, 1
1491505383538,0, -1, -1, -1, -2, 0, -2, -1
1491505383567,-3, 0, -2, -6, -4, 0, 0, -1
1491505383568,2, -7, -5, 10, 3, 0, -2, 1
1491505383569,-2, 1, 0, -2, 0, -3, -1, -3
1491505383570,-2, -5, -7, -3, -3, 0, -1, -1
1491505383579,8, 0, -4, -2, -2, -2, -1, 0
1491505383583,1, 4, 1, -3, 0, -1, 0, -2
1491505383598,-4, -5, -1, 0, -1, 1, 1, -3
1491505383605,1, -3, -3, -1, -2, -3, -1, -1
1491505383613,0, 5, 9, 0, -2, 1, 3, 1
1491505383614,-1, -2, -1, -1, -1, 1, -1, -2
1491505383628,-3, -3, -2, -2, 0, 0, 0, -1
1491505383636,-3, 1, 1, 8, 3, 0, -1, -1
1491505383643,0, 1, -1, -5, -2, -1, 0, -4
1491505383658,-1, 0, 1, -1, -2, -1, 0, -1
1491505383666,-1, -1, 2, 0, -1, -2, -1, -3
1491505383673,-1, -12, -7, 1, 0, 0, -1, 0
1491505383674,-3, 16, 3, -3, -1, -1, -2, -3
1491505383688,0, 0, 2, -2, -1, 1, -2, 1
1491505383698,0, -5, -2, -2, -1, -2, 1, -1
1491505383703,0, 10, 3, 0, 0, -2, 0, -2
1491505383718,-3, -3, -3, -3, -2, -2, -2, 0
1491505383726,-1, -11, 3, -1, -1, 0, 1, 0
1491505383734,0, -5, -7, -6, -1, 0, 0, -1
1491505383748,-2, 2, -3, -2, 0, 0, 1, 1
1491505383757,1, -6, -1, -4, 0, -2, -1, -3
1491505383764,1, 3, 1, 1, -1, -3, 0, -1
1491505383778,6, 0, -2, 1, 0, -2, -1, -1
1491505383786,-2, 7, 6, -1, -1, 0, -2, -2
1491505383794,-2, -3, -1, -3, -2, -1, -2, -4
1491505383808,0, 4, -2, -2, 0, 0, 0, -1
1491505383816,-3, 11, 3, 2, -1, 0, 2, 1
1491505383823,-3, -8, -4, -2, -2, -1, -1, 1
1491505383840,-3, -8, -3, -1, 0, -1, -2, -3
1491505383846,-1, -2, -3, -2, 0, 1, -2, -2
1491505383857,9, -9, -1, 14, 2, 0, 0, 2
1491505383868,2, 3, 5, -2, -2, -2, -3, -3
1491505383876,-5, 3, 5, -5, -2, 0, -1, -1
1491505383883,-2, 6, 4, 1, 2, 1, -1, -1
1491505383884,-3, -7, -6, 1, 1, 0, 0, -1
1491505383898,0, -1, -1, -4, -1, -3, -3, -2
1491505383906,-3, -3, -2, -3, -1, 0, 0, 0
1491505383915,0, -2, -2, -1, 0, -1, -1, 0
1491505383928,1, -1, 0, -2, -1, -1, -1, -1
1491505383936,-6, 14, 3, -5, -3, -1, -1, 0
1491505383943,-1, -2, -3, -1, -1, -2, 0, 1
1491505383958,3, 5, 7, 0, 2, 1, 1, 2
1491505383966,1, -3, -3, 1, -2, 0, -2, -2
1491505383974,-6, -4, -3, -1, -1, -1, -1, -3
1491505383988,-1, -3, -4, -1, 1, -1, 1, -1
1491505383996,-3, -4, -4, -5, 0, 0, -1, -5
1491505384003,-1, -2, -2, -2, -1, -1, -4, -2
1491505384018,0, -4, -4, -1, 0, 0, -1, -1
1491505384026,2, 2, 0, 10, 2, 1, 1, 0
1491505384035,-3, 0, -1, 0, -2, -1, -1, 0
1491505384051,-4, 5, 2, -4, -1, 1, 0, -1
1491505384057,4, 6, 3, 0, 1, -2, 0, 1
1491505384063,-4, -1, 1, 1, -1, -1, -1, -4
1491505384064,0, 1, 3, -2, 0, -1, -1, 1
1491505384078,-3, -9, -5, -4, 0, -2, -2, -2
1491505384086,-2, -8, 0, -1, -1, 0, 0, 1
1491505384095,-2, 0, -2, 0, -2, 0, -1, -3
1491505384108,-4, -6, -9, -3, -1, 1, 0, -4
1491505384116,-2, -8, -9, -8, -4, 2, 1, -2
1491505384123,0, -2, -1, -3, 0, -1, -1, -5
1491505384138,-7, -4, 1, 1, 0, -3, -2, -2
1491505384145,-1, -3, -5, -2, -2, -3, -3, -3
1491505384153,3, 0, 1, 0, 0, -2, 0, 0
1491505384168,-2, -4, 0, -1, -1, 1, 0, 1
1491505384176,1, 1, 1, 2, -1, 1, 0, -1
1491505384184,0, 5, 2, 0, -2, 0, -2, -4
1491505384198,1, -5, -4, 0, 0, 0, 0, 2
1491505384205,-3, 1, -1, -1, -2, -3, -1, 1
1491505384213,1, 3, 0, -4, -4, -2, 0, -4
1491505384228,0, 1, 0, -2, -1, 0, -3, 0
1491505384236,-3, 6, 3, 0, 0, -1, -1, 0
1491505384243,-1, -8, 0, 1, -1, -1, 1, 2
1491505384258,-5, -5, -4, -2, -1, 0, -1, -5
1491505384266,5, 2, -1, 1, 0, -2, -2, -4
1491505384274,4, -5, -5, 1, 1, -2, 0, 1
1491505384288,5, 18, 8, 2, -1, -1, 1, 1
1491505384296,2, 2, 0, 0, -1, -1, -2, -2
1491505384303,1, -2, -2, -2, -2, -2, -1, -2
1491505384318,0, -3, 0, 0, -1, 1, 0, 0
1491505384325,-3, 7, 3, -3, -1, 0, 1, -3
1491505384326,-3, -8, -8, -6, 0, 1, 2, 2
1491505384334,4, -3, -3, -3, 0, -1, -1, -2
1491505384348,-3, -2, -1, -2, -1, -1, -1, -1
1491505384356,-5, -6, -4, 0, -1, 1, -2, 1
1491505384363,-2, -4, -4, -1, -2, -1, -2, 0
1491505384378,-3, -3, -2, 1, 0, 0, 0, -2
1491505384386,-2, -4, -2, 2, 1, -2, 0, -4
1491505384394,-7, -3, 2, 0, -2, 0, 0, 0
1491505384408,-5, -1, 0, -1, 0, 1, -1, -3
1491505384417,1, -3, -2, -2, -3, -2, 0, 0
1491505384430,3, 6, 4, 7, 2, -2, 0, 3
1491505384439,-1, 1, -1, -1, -1, 1, -1, -1
1491505384446,3, -1, -1, 0, -1, 1, -1, -1
1491505384460,-4, -7, -4, -1, -1, 1, 1, 0
1491505384461,0, 5, 2, -1, 0, -1, -1, -2
1491505384468,-1, -3, -2, -2, -1, 0, 0, -1
1491505384478,-6, 1, -2, 0, -1, -1, -2, -7
1491505384490,3, 1, 4, -1, -1, -1, 0, 1
1491505384498,-2, -7, -6, 0, 1, -1, -1, -2
1491505384505,-3, -3, -6, -2, -1, 0, -1, -4
1491505384506,-5, -4, -3, -2, -1, -1, -1, -5
1491505384521,0, -6, 1, -1, -1, 0, 0, 0
1491505384528,0, 0, 1, -2, -1, -2, 0, -1
1491505384536,2, 4, 2, 14, 3, 0, -1, 0
1491505384550,-4, -1, 1, -2, -2, 0, -2, -1
1491505384558,-1, 0, 0, -4, -2, -1, 0, -2
1491505384566,1, 1, -4, 1, 0, 0, -1, -4
1491505384580,6, 5, -2, -2, -4, -1, -2, -2
1491505384588,1, -1, 1, -3, -2, 1, 0, -3
1491505384596,-2, 5, 2, -1, -1, -3, 0, -1
1491505384610,-5, -3, 1, 0, -3, -3, -2, 2
1491505384618,0, -4, -1, -3, 0, -1, -3, -1
1491505384625,-1, -4, -3, 1, 1, 0, 0, 0
1491505384640,-2, -4, -1, 0, -1, 0, 1, 0
1491505384641,-4, 2, 3, 0, -1, -1, -1, 0
1491505384648,0, 4, 1, 6, -1, 1, -1, -1
1491505384656,8, 2, 1, -2, -1, 1, -1, 3
1491505384670,1, -4, -3, -5, -1, -3, 0, 1
1491505384678,-3, -1, 2, 0, -1, 0, 0, -1
1491505384686,1, 2, 3, -3, -1, -1, -1, -1
1491505384700,8, 8, 1, -1, -2, -4, -2, -1
1491505384708,-2, -2, -5, -3, -2, -2, 0, -2
1491505384716,-2, -6, -2, -2, 1, 1, -1, -1
1491505384730,-2, -3, -5, -2, 0, 0, -1, 0
1491505384738,-3, 0, -1, -1, -2, 0, 0, 1
1491505384745,-2, 1, 0, -2, 1, 0, 1, 0
1491505384763,-2, -2, 1, 0, 0, 0, -1, 1
1491505384768,-6, -2, -3, 0, 0, 0, -3, -2
1491505384776,-4, -3, -3, 11, 3, 0, -2, -1
1491505384790,1, 2, 1, 0, 0, 0, -3, 2
1491505384798,-3, 0, -1, -4, -2, -1, 0, -2
1491505384806,-1, -4, -7, 0, -2, 0, 0, -5
1491505384827,-3, -1, 1, -1, -1, -1, -2, -4
1491505384828,0, -1, -3, -2, -2, -2, 0, 2
1491505384829,1, 1, 3, -2, -1, -2, 0, -1
1491505384838,-5, -5, 4, -3, 0, 1, 2, -3
1491505384850,-2, -6, -2, 0, -2, -2, 0, -1
1491505384858,-5, -1, -2, -4, -2, 0, -2, -5
1491505384866,1, 1, 3, -3, 0, -1, -2, -3
1491505384881,1, -2, -3, -2, -2, 0, -1, -3
1491505384890,6, -5, -2, -3, -2, 1, -1, 0
1491505384897,0, -6, -7, 0, 0, -1, 0, 0
1491505384910,-4, -10, -9, -2, 0, -1, 0, -1
1491505384918,1, 2, -3, -7, -1, -3, -1, 0
1491505384926,-5, 2, 0, -1, -2, 0, -1, 0
1491505384941,0, 2, 3, -2, -2, -1, -2, -2
1491505384948,2, 7, 4, 1, 0, -1, -1, -3
1491505384956,2, -2, -2, -1, 0, 0, -1, 1
1491505384972,-2, -2, -3, 0, 0, -1, 0, -5
1491505384978,-8, -5, -2, 1, -1, -2, -1, -5
1491505384986,5, 6, 3, -2, -1, -2, -1, 0
1491505385002,-4, 0, -3, 1, -1, -1, -1, -1
1491505385009,-5, 8, 4, 0, 0, 2, 0, 1
1491505385016,3, 2, 0, 0, -1, 0, -1, 2
1491505385030,0, -6, -4, -5, -1, -2, -1, -1
1491505385040,-3, -1, -2, -4, 0, -2, -2, -2
1491505385046,4, 2, -3, -5, -3, -4, -1, -2
1491505385061,5, 3, 2, 4, -1, 0, 0, -2
1491505385069,-2, -8, -6, 1, 0, 0, 0, -3
1491505385076,-2, -4, 2, 1, -1, -1, 1, 2
1491505385090,8, 3, 2, 1, -1, 0, -1, 1
1491505385099,1, -1, -1, -4, -2, -2, 0, -2
1491505385107,0, -3, 4, 1, -1, -2, -1, -1
1491505385121,0, 9, 6, -3, 0, 1, -1, 0
1491505385128,-1, 2, 1, -3, 0, 1, -1, 1
1491505385136,0, 2, 5, 2, 0, 0, 1, -1
1491505385150,-2, 4, 2, 0, 0, -3, -2, 1
1491505385158,-1, -3, -5, -1, -1, 0, -1, -1
1491505385165,-5, -3, -3, 0, -1, 0, 0, -1
1491505385181,0, -1, 4, 2, 0, 0, 0, 1
1491505385188,-4, -2, -4, 0, -1, -1, -2, -3
1491505385196,6, -1, -3, -3, -1, -1, 0, -1
1491505385210,6, 11, -1, -2, -1, -1, 0, 0
1491505385218,-3, -1, -4, -3, 1, -2, -2, -3
1491505385226,5, 5, 2, 2, -2, 0, 2, 1
1491505385241,1, -1, -1, -1, 0, 0, -3, 1
1491505385248,-4, -3, 2, 1, 2, -1, -1, -4
1491505385256,1, -1, -1, -1, -3, -2, -1, -1
1491505385271,-5, -7, -6, -3, -1, -2, -1, -1
1491505385279,-4, -5, -6, 0, 3, 0, -1, -4
1491505385286,-1, -9, -7, -4, -4, -2, -2, -2
1491505385300,0, 14, 19, 2, -1, -2, 0, -1
1491505385301,-1, -2, -4, 1, -3, -2, 1, -2
1491505385308,11, 2, -3, 0, 0, 1, 0, -2
1491505385317,-5, 0, 9, 0, 0, 1, -4, -2
1491505385331,-13, -16, -4, 2, 1, 0, 0, 0
1491505385339,-7, -2, -5, -7, -3, 0, 0, 0
1491505385352,1, 2, 1, -6, -2, -1, 1, 32
1491505385362,-5, -5, -21, -2, 0, -2, -2, 7
1491505385368,0, 1, 4, 7, -1, 1, -1, -4
1491505385384,-6, -1, -1, 0, -2, -2, -2, -17
1491505385391,2, 1, 1, -2, -2, -1, -3, -16
1491505385402,3, -1, 1, 2, 0, 1, -3, -7
1491505385412,2, 2, 3, -4, -1, -1, -1, -7
1491505385421,-1, 4, 10, -2, 2, -3, -2, 1
1491505385428,0, 1, -4, -3, -1, 0, 0, 2
1491505385443,-6, 7, 3, 0, -2, 0, 2, 12
1491505385451,-7, -3, -4, -3, -3, -2, -2, 1
1491505385459,11, -5, 0, 2, -1, -3, 0, 23
1491505385472,-2, 1, 3, 3, 0, -1, -1, -1
1491505385481,-5, -2, -5, -3, 0, 1, 0, -5
1491505385488,7, -4, -6, 0, 0, -2, 0, -13
1491505385503,0, -2, -3, -2, 1, 1, -3, -13
1491505385510,6, 0, -1, 0, -1, -1, 0, -6
1491505385511,-5, -1, 0, -1, 2, 0, 2, 4
1491505385519,7, -2, 0, -5, -12, 0, 0, -10
1491505385532,-8, 0, 4, 2, 0, -1, -1, -15
1491505385540,-2, -5, -3, -4, -5, 0, -1, 5
1491505385548,5, 3, 5, 1, -1, -1, 0, 22
1491505385563,-4, -3, -2, 1, 2, -4, 0, -2
1491505385571,-4, -2, -1, -5, 0, -1, -3, -12
1491505385579,-9, -1, 3, -1, 0, 0, -4, -24
1491505385592,-4, -2, -3, 0, -1, -1, -5, -38
1491505385601,0, -5, -3, 3, 3, -1, 0, 1
1491505385608,-3, 2, 14, 3, -1, -1, 3, 3
1491505385623,-1, 4, 0, -2, 1, -2, -3, -13
1491505385630,-4, -5, -8, -2, 0, -2, -2, 0
1491505385639,2, -2, -1, 1, 6, 0, 0, 12
1491505385653,4, -1, -2, -1, -2, 0, -2, 1
1491505385663,0, 3, 1, 0, -5, 0, 1, 12
1491505385668,6, -1, -5, -6, 1, 0, -3, -22
1491505385683,9, 3, 1, -2, -1, -2, 2, 21
1491505385690,-6, -5, -2, 0, 0, -3, 1, 20
1491505385699,15, -8, -8, -1, -1, 0, 1, 16
1491505385712,10, 4, 6, 5, 1, 2, -2, -6
1491505385720,0, 0, -4, -2, -1, -1, 0, -14
1491505385721,-13, -3, 2, -3, -1, -1, -4, -26
1491505385728,-7, -1, -3, -1, 2, -1, 1, 5
1491505385743,-1, 7, 12, 0, -3, -3, -4, -18
1491505385750,-3, -3, -3, -5, -2, 0, -2, 5
1491505385758,-10, -5, -5, -4, 3, 0, 0, -28
1491505385772,1, 14, 6, 5, 3, 1, -1, 5
1491505385781,2, -19, -8, -6, -4, 0, -2, -5
1491505385782,2, 1, 2, 4, 0, 1, -1, -17
1491505385788,5, -9, -7, -3, -2, -2, -3, -1
1491505385803,-2, -1, 6, 5, 2, 0, -2, 9
1491505385810,-1, 3, 2, -1, 2, -3, -1, -12
1491505385820,-1, -5, -14, -3, 0, -3, -7, -18
1491505385832,-13, -2, 2, 7, 4, 1, -1, -7
1491505385840,1, 9, 12, -1, 3, 1, -1, -3
1491505385841,-2, -5, -5, -4, -2, -1, 1, 0
1491505385848,16, 3, -6, -5, -7, -1, -4, -4
1491505385863,-1, -6, -5, 1, -6, -2, 3, 5
1491505385871,1, -9, -7, -1, -6, 0, 3, 9
1491505385879,-3, 3, 1, -3, -3, -1, 3, -7
1491505385892,-15, -4, -1, -1, 2, -2, -1, -14
1491505385901,-6, -4, 2, 1, -1, -4, -2, 14
1491505385908,-31, -5, 3, 1, 1, 0, -4, -27
1491505385923,-6, -4, -1, 0, 2, 2, -2, 6
1491505385931,1, -1, -4, -5, -2, -1, 0, -5
1491505385941,11, 4, 17, 4, 2, 0, -2, 8
1491505385952,3, -2, -4, -7, -4, -1, 2, 2
1491505385953,-13, -9, -2, 7, 0, 0, -2, -35
1491505385961,3, -7, -6, 1, 11, 0, 0, 27
1491505385968,1, 3, 5, 2, 2, 0, 1, 15
1491505385983,-6, -3, -7, -3, -6, 0, 0, -2
1491505385990,0, 0, 2, -1, 5, 0, 1, -1
1491505385991,-6, -6, -7, -2, -3, -1, -1, 20
1491505386000,12, 6, 0, -1, -5, -1, 1, 22
1491505386012,22, 3, -1, -5, 0, -1, -2, 0
1491505386022,-2, 3, -1, 0, -1, 1, 0, -15
1491505386029,8, -4, -3, -6, -5, -6, -12, -10
1491505386043,1, -1, -5, 0, 3, 1, 1, -9
1491505386050,-1, -10, -3, -2, -8, 2, 5, -6
1491505386058,-1, 23, 10, 4, 12, 0, -3, -10
1491505386059,-3, -3, 3, -2, -3, -1, 0, -6
1491505386073,-2, 9, -1, 1, -3, 1, 2, 3
1491505386081,-4, -3, -2, -3, -2, -1, 0, -4
1491505386088,-7, -1, 8, 3, 0, 1, 1, 28
1491505386110,-3, 6, -3, -11, -4, 0, -6, -5
1491505386111,-12, -1, 3, -6, 3, -2, -2, 0
1491505386119,19, -7, -13, 0, -2, -2, 3, 42
1491505386132,1, 0, -3, -1, 1, 0, 3, 4
1491505386140,-4, -15, -7, 3, -1, -1, -2, -19
1491505386148,11, 3, 1, 14, 11, 4, 5, 17
1491505386163,-11, -10, -9, -8, -5, -1, -5, 7
1491505386170,0, -1, -3, -12, -9, -3, -1, 9
1491505386178,-5, 5, 7, 11, 2, -1, -6, -7
1491505386179,-8, 0, -2, 2, 7, 0, 1, -26
1491505386192,29, 23, 20, 1, 1, 1, 6, 48
1491505386201,-11, 4, 2, -3, -2, 0, -1, -9
1491505386208,-11, -10, -11, -3, 2, -1, -1, -29
1491505386223,10, 4, 6, 6, -2, -3, 0, 14
1491505386235,-30, -11, 4, -1, 0, -1, -6, -38
1491505386240,8, 5, -1, -7, -10, 0, -1, -16
1491505386252,-5, -6, -8, -6, -5, -6, -5, -14
1491505386260,14, 6, 9, 0, -2, -3, 7, 25
1491505386275,5, 6, 4, -1, -2, -1, -2, 6
1491505386283,-4, 1, -1, -2, -3, -2, 2, 1
1491505386291,-7, -14, -9, 2, 3, -1, 1, 1
1491505386305,-24, 3, 3, 6, 7, 2, 1, -2
1491505386312,1, 4, -7, -4, -7, -6, -5, -9
1491505386320,-11, -9, -9, 1, 21, 1, -2, 3
1491505386335,2, -2, -14, -2, -1, -1, -3, -14
1491505386343,6, 7, -1, 4, 1, 1, -3, -21
1491505386350,-4, -13, -14, -8, -8, -1, -1, -18
1491505386351,-6, -4, -3, -5, 0, 0, 1, -17
1491505386366,2, -5, -3, -1, -3, -1, -1, -2
1491505386372,-1, -10, -6, 0, -3, 0, 0, 7
1491505386382,0, -8, 2, 1, 1, -1, -1, -5
1491505386395,-1, -8, -4, -2, -2, -1, -4, 14
1491505386403,-3, 34, 12, 2, -1, -1, -1, -5
1491505386411,2, 6, 6, 4, 1, 2, 2, 5
1491505386425,-11, -19, -11, -4, 0, -3, -1, -8
1491505386426,9, 0, 1, -3, -5, 0, -1, 6
1491505386432,-6, -13, 5, 1, 3, 0, 0, 0
1491505386441,1, -19, -6, -3, -4, -2, -5, -17
1491505386455,14, -4, -8, -4, -4, -1, 0, -5
1491505386463,-2, -14, 3, -3, -3, 1, 2, 5
1491505386470,19, 18, -8, 2, -1, -2, -3, -2
1491505386471,-10, 21, 28, 2, 0, 1, 1, -11
1491505386486,-7, -5, -7, -2, -2, -2, -3, -12
1491505386492,-8, 5, -2, -1, 0, -3, -1, 6
1491505386500,49, 19, 3, 2, -1, -1, -1, 5
1491505386501,-65, -11, 0, 1, -1, -2, 0, -6
1491505386515,3, 37, 8, 0, 0, -1, -4, 0
1491505386524,24, 7, -7, -3, -4, -1, -1, 10
1491505386530,18, 4, -16, -3, 1, 0, 0, 7
1491505386545,16, 3, 7, 5, 2, 1, 1, -5
1491505386552,54, 5, 0, 1, 0, 3, 7, 23
1491505386560,-20, -15, -6, -3, -2, -1, -2, -3
1491505386575,-15, -39, -20, -3, -2, 0, -1, -2
1491505386583,17, -11, -5, 2, 0, 1, -3, -18
1491505386590,-12, 32, 10, 18, 6, 1, 0, -14
1491505386605,-25, -32, -13, -3, -3, -1, 0, -6
1491505386606,0, 3, -16, -7, -3, -6, -3, 6
1491505386612,1, -1, 5, -5, 0, -1, -2, 12
1491505386621,12, 10, 4, -1, -1, 0, 1, 2
1491505386635,-14, -33, 6, -2, -4, -3, -1, -12
1491505386643,-10, 38, 18, 0, 0, 0, 1, -8
1491505386651,-43, 4, 10, -2, -1, -3, -2, -18
1491505386666,31, -14, -5, 2, -4, -3, -1, 13
1491505386672,14, -15, -6, -2, -4, 1, -1, -3
1491505386680,-7, 4, 6, 6, 2, 2, 3, 0
1491505386695,6, -21, -15, -9, -5, -1, -3, -2
1491505386704,-19, -15, -6, -5, -2, -3, -4, -6
1491505386711,26, 2, -14, -5, -3, -2, 2, 2
1491505386725,-29, -50, -26, 0, -1, -1, -4, -14
1491505386726,12, 45, 34, 3, 1, -2, 0, 4
1491505386733,13, -4, 0, 3, 7, 3, 2, 22
1491505386741,-12, -19, -9, -11, -3, -3, -2, 3
1491505386755,-11, 6, 4, -1, 6, 0, -1, -8
1491505386763,-8, -22, -5, -9, -2, 1, 1, -18
1491505386770,1, 26, 5, -2, -4, -2, 0, 8
1491505386771,7, -20, -9, 0, -2, -3, -1, -10
1491505386785,3, 8, 3, -3, -4, -4, -3, -2
1491505386792,-12, -2, -8, -2, 6, 0, -2, 3
1491505386800,5, 0, 6, 7, 2, 1, -1, 28
1491505386815,-15, -2, -2, 0, -6, -3, 4, 8
1491505386823,29, 4, -5, -1, -1, 0, -2, -22
1491505386830,-14, -9, -2, -3, 0, -3, -2, 9
1491505386831,4, 15, 17, -2, -4, -2, -4, -16
1491505386845,-1, 5, 4, 7, -1, -1, 3, 23
1491505386852,-4, 1, 3, -4, -10, -3, -3, -11
1491505386860,-10, 3, -8, 0, 5, 2, 1, -1
1491505386875,1, 3, -2, -5, -7, -2, 0, 32
1491505386883,8, -3, -4, -4, -2, -2, 0, 8
1491505386890,-18, -3, 1, -3, -4, 0, 3, 6
1491505386891,9, 7, 2, 6, 3, -1, -3, -41
1491505386905,-3, -8, -7, -5, -5, -4, -5, -2
1491505386912,18, 12, 2, -1, -1, -2, -4, -3
1491505386913,-5, -13, 3, 0, 1, 3, 5, 19
1491505386920,-11, -10, -2, 7, 6, 0, -5, -25
1491505386935,1, 3, -7, -2, -1, 0, -1, 9
1491505386943,8, -1, -12, 0, -2, -1, -1, -2
1491505386950,21, 8, -6, -2, 1, -1, 0, -13
1491505386965,17, 20, -1, -3, 0, 1, 2, 1
1491505386972,-9, 3, -4, -1, -2, -2, -1, -12
1491505386981,-9, -27, -16, -6, -2, -1, -1, -2
1491505386995,-7, 9, 6, 1, 3, -1, -3, -2
1491505387003,32, -2, 4, -4, -3, -1, 4, 78
1491505387011,-23, -21, -11, -3, -2, -2, -2, 3
1491505387028,9, 4, -1, -1, -6, 0, -3, -26
1491505387029,3, 2, 7, 0, 10, 0, 0, 12
1491505387032,2, 3, 3, -1, -2, -1, -2, -5
1491505387040,-5, -6, -1, 1, 2, -1, 2, 0
1491505387041,-19, -1, 4, 2, -4, 1, -1, -19
1491505387055,-14, -2, -4, -1, 2, 0, -2, -6
1491505387063,-7, -10, 1, -3, -6, 0, -1, 5
1491505387071,-1, -10, -3, 1, -2, 2, -1, -4
1491505387085,23, 8, -6, -8, -2, 1, 1, 24
1491505387086,-10, -1, 2, 2, 3, 0, -3, -28
1491505387092,12, 18, 6, -1, -4, -4, 1, -11
1491505387100,-12, 6, 7, 2, 0, 0, -1, -56
1491505387115,-8, -6, 6, 5, 2, 0, -3, -52
1491505387124,1, -4, -5, -4, 1, -1, -2, 29
1491505387131,16, 4, -9, -3, -1, 0, 1, 80
1491505387146,0, 1, -3, -2, -6, -1, -1, 49
1491505387153,-21, -2, 1, 3, 2, -1, -4, -33
1491505387161,-2, -1, -5, 0, -1, -1, -3, -18
1491505387175,3, 4, 5, 1, -2, 0, 1, 22
1491505387183,-5, -5, -7, 10, -3, 1, 1, 18
1491505387190,5, 7, 2, -3, -3, -1, -4, -82
1491505387206,16, 1, 8, -6, -3, -1, -1, -73
1491505387212,9, 22, -7, 0, 4, 2, 5, 34
1491505387228,-10, -8, -10, -5, 0, -2, -3, -51
1491505387235,3, -3, -2, -2, -2, -3, 0, 74
1491505387243,-10, 10, 6, 2, -3, -1, -1, -27
1491505387257,-1, -8, -2, 4, -2, -2, -4, -68
1491505387266,1, -7, -2, -2, -1, -5, -4, 21
1491505387272,-4, 11, 10, 0, -1, -2, -3, 34
1491505387288,-7, -7, -2, 6, 4, 2, 0, 23
1491505387295,8, -12, -5, -4, -3, -1, -1, 21
1491505387303,3, 0, 8, -4, -2, -3, -4, 40
1491505387319,-5, -12, -9, -7, -3, -2, -2, 6
1491505387325,-8, 10, 7, 3, 0, -1, -1, -17
1491505387326,1, 0, -3, 2, -3, 1, 1, 41
1491505387342,2, 0, 4, 1, 5, 1, -1, -27
1491505387348,-25, -28, -4, -6, -4, -4, -2, -50
1491505387356,-18, -13, -9, -3, -4, -1, -1, -35
1491505387363,10, -3, -2, -4, -2, -2, -6, 29
1491505387380,5, -12, -6, -3, -1, -2, 1, -9
1491505387385,-1, -2, -8, -3, 0, 2, 2, -15
1491505387401,-10, -3, -9, -1, -4, 0, -2, -12
1491505387408,4, 7, -9, -5, -2, -2, 1, -3
1491505387423,-8, 2, 2, 15, 5, 0, -2, -25
1491505387424,-4, 6, 6, 2, 3, 0, -1, -26
1491505387439,-5, -1, 2, -2, -3, -2, -3, -11
1491505387447,2, 11, 10, 7, 3, 0, -2, -21
1491505387461,21, -8, -6, -5, -1, -1, 2, 22
1491505387468,-4, 10, 8, -2, -2, -2, 1, -4
1491505387476,-3, 7, 8, 0, 0, 0, -3, -2
1491505387483,9, -1, -3, -1, -2, -1, -2, 20
1491505387499,0, 33, 15, -2, 0, -1, 1, 4
1491505387505,-8, -6, -5, 0, 0, -1, -3, -25
1491505387506,-7, -3, -5, -1, -2, 0, 2, -13
1491505387521,3, -2, -3, -4, 3, 2, 3, 49
1491505387528,-4, 1, -2, -7, -6, -3, 2, -11
1491505387536,-9, 0, 5, 0, -3, -1, 2, -1
1491505387543,-8, -12, -8, -3, 1, -3, -2, -8
1491505387558,10, -8, -10, -5, -1, -1, -4, -17
1491505387565,-1, -5, -4, 3, -3, 0, -1, -16
1491505387582,-10, 5, 20, 2, -1, 0, -2, 3
1491505387588,-2, -5, -4, -2, 1, 1, -2, 17
1491505387596,3, -8, -1, 1, -3, -2, -2, -1
1491505387603,0, 0, 6, 2, 6, 0, 2, 25
1491505387619,-5, -6, -7, -4, 0, -1, 1, 4
1491505387625,16, 0, -1, 4, 1, 1, 1, -3
1491505387641,-2, -8, -5, 2, -1, -1, 1, 7
1491505387648,-4, -3, 0, 1, -1, -1, -1, -1
1491505387656,-2, -2, -3, -3, -1, 0, 2, 4
1491505387663,7, -9, -8, -2, -3, -1, -1, -10
1491505387679,4, 1, -6, -4, 1, -1, -3, -5
1491505387685,-15, 3, 5, -1, 1, 4, -1, -9
1491505387701,2, 0, 3, -1, -1, 0, 3, 3
1491505387708,-2, 1, 5, 13, -2, 0, -2, 5
1491505387716,8, 6, 4, 3, 0, 0, 0, 18
1491505387723,-4, -10, -4, -2, -1, -2, -1, 2
1491505387740,10, 27, 8, -2, 0, -1, 0, -6
1491505387741,-4, -8, -4, 1, -1, -3, -2, -12
1491505387745,-11, 4, 2, -4, 0, -1, -1, -5
1491505387761,-8, 5, -3, -4, -1, 2, 0, -3
1491505387768,9, -2, 4, 2, 0, -2, -1, 12
1491505387776,0, 0, 0, 0, 0, -1, 2, -8
1491505387783,28, 3, -10, -10, -10, -6, 5, 97
1491505387800,6, -2, -3, 4, -2, 0, -2, 5
1491505387805,-10, 4, 0, -1, 1, -3, -7, -49
1491505387821,-6, -3, -4, -3, -1, 0, -2, 13
1491505387828,4, 9, 6, -1, -3, 1, 6, 48
1491505387836,-11, 3, 8, 4, 1, -1, -4, -21
1491505387843,-10, -5, -5, -4, -1, -1, -1, -24
1491505387859,22, -11, -10, -3, 1, 0, 1, 0
1491505387866,6, -1, -4, 0, 2, 1, 0, -28
1491505387881,-6, -1, -7, -7, -5, -1, -6, -50
1491505387888,-10, 2, 1, 2, 2, 0, 4, -25
1491505387896,-2, -3, 1, 0, -1, -3, -4, 13
1491505387903,-25, -15, -7, -6, 5, 2, 1, -21
1491505387918,8, 2, -4, 0, -5, -3, -4, -7
1491505387919,-8, 3, 3, 1, 1, -1, 3, 2
1491505387926,-11, 7, 6, 5, 1, 0, 0, -31
1491505387941,-6, -4, -8, -1, -2, -2, 2, 3
1491505387948,-3, -15, -12, -7, -1, 2, 2, 32
1491505387956,10, 25, 2, 1, -3, -2, -2, 23
1491505387963,4, -5, -1, 0, -2, -2, -2, -5
1491505387980,3, 14, 7, -2, -1, 1, -3, 18
1491505387985,-14, 1, 0, 4, 8, 2, -3, -28
1491505387986,17, -3, 4, -1, -6, -2, 4, 61
1491505388002,-1, -2, -4, 1, -3, -4, -8, 1
1491505388003,-4, -19, -10, -8, -4, -2, -1, -12
1491505388008,-4, 1, -5, -1, 1, 0, -4, -9
1491505388016,-8, -2, 4, 3, 5, 2, 6, 3
1491505388023,-1, 4, 6, 2, 0, 0, -5, -10
1491505388038,-4, -7, -5, -2, 0, 0, -1, 25
1491505388046,4, -5, -1, -2, -2, -3, 2, 5
1491505388047,2, 2, -1, -3, -6, -3, -4, 0
1491505388064,5, -15, -6, -1, -2, -3, 2, 4
1491505388068,6, 3, -4, -3, 0, -2, -4, -10
1491505388077,-4, -8, -1, 1, -1, 1, -1, -4
1491505388083,5, 5, 3, 5, 0, 0, 0, 46
1491505388099,-2, -2, 0, -2, -4, -1, -5, -14
1491505388105,2, 0, 1, 1, -1, -1, -1, -14
1491505388121,0, 2, 1, -4, -1, 1, 1, 6
1491505388128,-2, 0, 0, -1, 0, -1, -1, -16
1491505388136,-5, 3, 2, -4, -2, -1, 4, -6
1491505388151,-5, -1, -3, -2, -1, -2, -3, -13
1491505388160,1, -1, 0, -2, -2, 0, 1, 5
1491505388166,3, 3, 1, -1, 1, 0, 1, -2
1491505388181,0, 0, -2, 4, 1, -1, -3, -11
1491505388188,3, 15, 15, 1, 1, -1, -2, -5
1491505388196,6, -18, -5, -1, 1, -1, 0, 9
1491505388211,-1, -2, -4, -4, -3, 0, -2, 11
1491505388219,2, -3, 4, 0, 1, 0, 0, 0
1491505388226,-5, -6, -7, -4, -2, -1, 2, -31
1491505388241,-6, -11, -8, 0, 5, -1, -1, 3
1491505388248,1, 3, 3, -3, -2, -1, -2, -8
1491505388258,0, 5, -2, -4, -2, -2, -1, -2
1491505388271,-2, -1, -4, 0, 2, -1, -2, 4
1491505388279,-1, -1, -3, 0, -1, -1, -4, 4
1491505388286,-1, -20, -10, -1, -1, -1, 1, 36
1491505388301,-9, -12, -1, 2, -1, -1, -2, -12
1491505388308,3, -7, -2, 3, -1, 2, -2, -23
1491505388316,-5, -7, -6, -2, -4, -2, -2, -23
1491505388331,-4, -6, -5, -2, -1, -1, -2, 2
1491505388338,1, 10, 0, 0, -1, 0, -1, -15
1491505388345,-1, -10, -5, -2, -2, -3, -1, -13
1491505388346,2, 10, 8, 1, 0, -3, -1, -9
1491505388361,1, 11, 4, 1, -1, 1, -1, 12
1491505388368,9, 5, -2, -1, -1, 0, 1, -3
1491505388376,-2, -1, 1, 0, 1, 0, -2, 10
1491505388390,-4, -8, -4, 0, -1, 2, -3, -8
1491505388391,-6, -3, -1, 0, -4, 0, -3, -2
1491505388398,5, 12, 3, -1, 0, -1, 2, 1
1491505388405,0, -3, -4, -4, 0, -2, -1, -6
1491505388406,-3, -10, -3, -1, 0, -3, 1, -3
1491505388421,-3, -4, -3, 1, -2, 0, -2, -5
1491505388428,2, 8, 0, -1, 2, 0, 1, 0
1491505388436,2, -2, -3, -2, -5, -1, -1, 0
1491505388450,-4, -3, 1, -1, 4, -1, -2, -9
1491505388459,-5, -2, 0, 2, 0, -1, 0, -6
1491505388465,0, 0, -1, -4, -3, -1, -1, 1
1491505388466,-5, 1, -1, 0, 2, 0, -2, -4
1491505388480,3, 9, 7, 3, 0, 0, 2, 4
1491505388488,-3, -1, -2, -4, -3, -2, -2, -4
1491505388496,1, 1, 0, 0, 3, 0, 1, 3
1491505388511,1, 5, 2, 13, 3, 1, -1, 1
1491505388519,-2, -2, 0, -2, -2, -2, -3, -3
1491505388526,-4, -2, -2, -2, -3, -1, 0, -4
1491505388540,1, -1, 1, 2, -1, -3, 0, 1
1491505388541,0, 0, -1, -2, 0, 0, 0, 4
1491505388555,5, 2, -2, -3, -3, 0, 0, 5
1491505388556,0, 1, 2, -1, -3, -2, 0, -2
1491505388570,-6, -3, 1, 3, 0, -1, -1, -2
1491505388580,0, -1, 0, 0, -1, -2, 0, 1
1491505388585,-1, -1, 0, -6, -1, -1, -1, -3
1491505388601,-1, -3, -4, -2, -2, -2, -1, -3
1491505388608,1, 1, 2, -3, 1, -1, -2, -2
1491505388616,-2, -4, -3, 0, 0, -1, -1, -8
1491505388631,-1, -1, -1, -2, -2, -1, 1, -3
1491505388639,0, -3, -1, 1, 1, 2, -1, -13
1491505388646,-2, 0, 2, 0, -4, 0, -1, 9
1491505388661,1, 1, 0, -5, -3, -2, 0, 0
1491505388668,-4, 0, -3, 0, 0, -2, -1, -13
1491505388684,7, 0, -2, 0, 1, -2, -2, 8
1491505388690,-2, 0, -3, -3, -3, -2, -1, 20
1491505388705,2, 4, 4, -1, 1, 0, -1, -4
1491505388707,0, -4, -5, -5, -1, 0, -1, -25
1491505388728,-13, -4, -2, -1, -1, 2, -1, -10
1491505388729,-9, -3, -5, 2, 0, -1, 0, -3
1491505388736,-3, -4, -3, -1, -1, -1, 2, 11
1491505388751,-7, 0, -1, 0, 0, -1, 1, 7
1491505388759,-1, 2, 1, -3, 0, -2, -3, -18
1491505388766,5, -4, 0, 0, -1, -2, 1, 8
1491505388781,10, -2, -6, -4, -1, -2, 1, 6
1491505388789,-2, 1, 10, 0, 1, -1, -2, -10
1491505388796,0, -6, -2, -1, -2, -3, -2, 3
1491505388811,4, -1, -10, -5, -4, -1, -2, 2
1491505388820,2, 17, 2, 2, 0, -1, 2, 2
1491505388826,0, 1, -3, -2, -2, 1, 0, 0
1491505388841,-3, 6, -3, 1, -1, 1, 0, -4
1491505388848,0, 4, 4, 2, -1, -1, -1, -6
1491505388856,-6, -7, -1, 0, -2, -2, -1, -1
1491505388871,5, 1, -2, -2, -1, 0, -1, -8
1491505388878,-4, -3, -3, -1, -1, -1, -2, 3
1491505388885,2, -9, -8, -1, -2, 0, -1, 2
1491505388901,-3, 1, -1, 0, -2, -1, -1, -2
1491505388908,-5, -2, 1, 0, 0, -2, -2, -3
1491505388916,8, 1, 2, 0, -2, -2, 0, 2
1491505388931,1, 6, 7, 1, 0, -1, -1, 1
1491505388939,-3, -16, -7, -3, -1, 0, 1, 3
1491505388945,4, 3, 12, 1, 1, 1, 0, -2
1491505388961,-2, -9, -2, -1, 0, -1, -2, 9
1491505388968,1, -9, 0, -1, 0, -1, -1, -4
1491505388976,-2, -15, -3, -2, 0, -1, -4, -10
1491505388991,-3, -1, -10, -3, -1, -1, -2, 1
1491505388999,8, 16, 0, -2, -1, 0, -1, -1
1491505389006,-2, 0, 1, -1, -4, 0, 2, 1
1491505389021,3, 7, 5, 0, -1, 0, 1, 1
1491505389028,1, -3, -1, -2, -1, 1, -1, -5
1491505389043,-3, 0, 3, 2, 0, 1, -1, 0
1491505389051,1, 27, 3, 0, 1, -3, 0, 2
1491505389058,-2, 11, 4, 0, 0, 1, 0, -8
1491505389073,-3, -8, -5, -2, -1, 0, -2, -1
1491505389081,-1, -4, 0, 0, 1, 0, -2, -3
1491505389088,-2, -5, -6, -1, -1, 0, -1, -2
1491505389103,4, -3, 0, -1, -2, -1, 0, -3
1491505389110,-2, 4, 3, 0, -1, -2, -3, 2
1491505389118,-7, 12, 1, -1, 2, 0, 0, 0
1491505389134,-1, -19, -6, -1, 0, 1, -1, -4
1491505389141,-2, -3, -3, -1, -1, -2, -3, -9
1491505389148,0, 1, -1, 0, 0, -1, 0, -2
1491505389163,-2, -10, -2, -1, 0, -2, 0, 2
1491505389171,-1, -8, -3, -1, -1, 0, 1, -6
1491505389180,-2, 2, 0, 0, -2, -2, -1, 2
1491505389193,-4, 8, 3, -1, -1, -3, -2, 1
1491505389201,-2, -8, -5, -1, -1, 0, -2, -3
1491505389208,-3, -9, -4, -2, -1, 0, 0, 0
1491505389223,2, -15, -7, 1, -1, -1, -3, -1
1491505389230,4, 0, -5, -2, -1, -1, -1, -3
1491505389240,-7, -4, -1, 0, -1, 1, 0, 0
1491505389253,1, 0, 0, 1, -1, -2, -1, -1
1491505389261,6, 22, 7, 0, -1, 1, 0, 2
1491505389268,-2, -23, -6, -2, -2, 1, 1, -2
1491505389283,-4, -6, -2, 0, -1, -1, 1, -1
1491505389290,-5, -4, 1, -1, 0, -1, -4, -4
1491505389298,6, -1, -1, -2, -3, 1, 2, -1
1491505389313,-1, -5, -3, -1, 0, 1, -1, 2
1491505389321,-5, -4, -4, -1, 1, -2, -2, -4
1491505389328,4, 3, -1, 0, 0, -1, 0, -3
1491505389344,-5, -4, -4, -3, -1, -2, 0, -3
1491505389351,-3, 7, 4, 1, 0, -2, -1, -4
1491505389358,1, -21, -7, -2, 0, 0, -2, -2
1491505389374,1, 4, 0, 0, 1, 2, -2, -2
1491505389381,-6, -6, -1, -1, -1, 0, -2, -7
1491505389388,0, 3, 5, 3, -1, 1, 0, -2
1491505389403,-3, 15, 3, 0, 0, -4, -3, -2
1491505389410,-1, -1, 0, -1, -1, 0, -1, 1
1491505389419,3, -3, -1, -2, -3, 1, -1, 4
1491505389433,-2, 3, -2, -3, -3, -3, -1, 1
1491505389441,-2, -3, -1, -1, 1, 2, 1, 0
1491505389448,4, -2, -2, -1, 0, 0, 0, 3
1491505389463,1, 4, -2, 1, 1, -1, -3, -1
1491505389470,-4, 8, 2, -1, -1, -1, 0, 1
1491505389478,-4, -8, -3, -2, 0, -3, 0, -1
1491505389493,-1, -17, -1, -3, -2, -1, -2, -2
1491505389501,-1, 1, 3, -2, -1, 0, 0, -3
1491505389508,-2, -6, -1, 0, -1, -1, 1, 0
1491505389523,1, -1, 0, 0, 1, 0, 1, -2
1491505389530,0, 1, -2, 1, -2, 0, -3, -3
1491505389538,3, 1, -1, -1, -2, -1, -1, -1
1491505389554,-6, 7, 2, 0, -2, -2, -2, -4
1491505389561,2, 7, 7, 1, -3, -2, -1, 0
1491505389568,-2, 2, -1, 0, 0, -2, 1, -2
1491505389583,3, -14, -6, -1, -1, 1, 1, 2
1491505389590,3, 4, -1, -2, -1, 0, -1, 0
1491505389598,11, 24, 4, 1, -2, -2, -2, 2
1491505389613,0, -2, -1, -4, 0, -1, -1, -1
1491505389621,-7, -10, -5, -1, 1, -1, 0, 1
1491505389629,1, 5, -2, -2, 0, 0, 0, 2
1491505389643,-3, -2, -2, -1, 0, 0, 1, -2
1491505389650,-1, -6, -2, -1, -1, -2, 0, 0
1491505389660,-1, 3, 0, -3, 0, -1, -2, -2
1491505389673,6, -3, -3, -2, -2, 0, -1, 1
1491505389681,-9, -5, -4, 0, 1, -4, -2, -2
1491505389688,-1, 4, 0, -1, -2, -1, 1, -2
1491505389703,-3, -4, -1, -1, -2, 2, -1, -4
1491505389711,1, 6, 2, 1, -1, -1, -2, 2
1491505389718,-4, 2, 0, -3, 1, 1, -1, -1
1491505389733,1, 1, -2, -2, -1, 0, -3, -2
1491505389741,3, 7, 2, 0, 0, 0, 0, -2
1491505389748,-5, -5, 0, 0, 2, 0, 1, -1
1491505389764,-2, 0, 0, -1, -3, -3, -1, 2
1491505389771,-2, 1, 1, -1, -1, -1, -1, -1
1491505389779,1, 2, 2, -1, -2, 0, 0, -2
1491505389793,-1, -3, -1, 0, -1, 0, -1, 0
1491505389801,3, -6, -3, 0, -1, -3, -4, -3
1491505389808,2, 14, 8, 2, 1, 0, 1, 2
1491505389823,-2, -7, -5, -2, 1, -1, -2, -2
1491505389830,2, -3, -4, -3, -2, 0, -1, -1
1491505389831,-1, -5, -4, -2, 0, -2, -2, -3
1491505389839,-2, 1, -1, -2, -2, 0, 2, -2
1491505389853,-2, -5, -2, -1, -2, -1, -1, -3
1491505389861,2, -1, -1, 0, -2, 0, -1, -2
1491505389868,-1, -1, 0, 0, 0, 0, 0, -1
1491505389883,-2, 4, 3, 0, 0, -1, -1, 1
1491505389890,-4, -5, -1, 1, -1, -1, -3, -3
1491505389891,1, -2, -5, -2, -2, -1, 1, -1
1491505389899,-2, -8, -2, 0, 2, -1, 2, 3
1491505389913,-1, -6, -2, -1, -1, -1, -1, 0
1491505389921,-1, 0, 0, -1, -1, 1, 1, -4
1491505389928,1, -1, -6, 0, -2, -1, -2, -2
1491505389950,3, 9, 2, 1, -2, 0, -2, 0
1491505389951,-6, 4, -4, 0, -1, -1, -1, -2
1491505389958,-1, 3, 4, 2, -1, -1, 2, 0
1491505389974,-1, 0, 0, 0, -1, -1, -2, -2
1491505389981,-1, -2, -1, -2, 0, 0, -2, -1
1491505389988,-3, -4, 1, -1, -1, 0, 0, -4
1491505390003,0, -1, -5, -2, -3, -1, -1, -2
1491505390010,-6, -2, -2, 0, -1, -1, -1, 0
1491505390011,5, -3, -1, -2, 0, 0, 0, -1
1491505390025,-2, -3, -1, -1, 0, -2, -2, -1
1491505390033,-2, -3, 1, 0, 0, -2, -2, 0
1491505390041,1, -8, -2, -1, 0, -1, -2, -1
1491505390055,6, 0, -1, -1, -3, -2, -1, 0
1491505390070,-2, 4, 2, 0, 1, 0, 1, -3
1491505390071,-1, 2, -1, 0, 0, 0, -1, -2
1491505390085,-3, -9, -5, -2, -1, 0, -2, 0
1491505390086,4, 2, -1, 0, -4, -1, -2, 0
1491505390093,-4, -5, -3, -2, -1, 0, -1, -3
1491505390102,0, -2, 1, 0, -1, -2, 0, -1
1491505390103,1, 1, -2, -2, 0, -2, 1, 0
1491505390115,0, 3, 0, 1, -1, -1, 1, 0
1491505390123,4, -2, -2, -1, -3, -1, 0, -1
1491505390132,4, 3, 2, -3, -1, 0, 0, 2
1491505390146,-3, 7, 1, -1, -2, 0, -1, -3
1491505390160,-5, -9, -6, -1, 1, -2, -1, -3
1491505390162,-4, -1, -2, -2, 0, -2, -1, -4
1491505390175,-1, 2, 0, -1, -2, -1, 0, -2
1491505390183,-5, -7, -3, -1, -1, -1, -2, -4
1491505390190,3, 3, 0, 0, -1, 0, -1, 0
1491505390191,3, -3, -3, 0, 0, 1, 0, 4
1491505390205,0, -1, 0, -2, -2, 1, -1, 0
1491505390213,-3, 2, -1, 1, 0, 0, -1, -3
1491505390221,-1, -10, -3, 0, 0, -1, 0, 0
1491505390235,-3, -8, -4, -1, -2, 0, -2, -4
1491505390243,-3, -3, -2, -2, 0, -1, 0, 0
1491505390250,-1, 1, 1, 0, 0, 1, 2, 0
1491505390251,0, 2, 1, -1, -2, -2, -1, -4
1491505390266,-2, 1, 2, 1, 0, -1, 0, -2
1491505390273,1, 5, 6, 4, 1, -1, 0, -2
1491505390281,-1, -9, -4, -1, 0, -2, -2, -2
1491505390294,-2, -5, -1, -3, -3, -3, -1, -2
1491505390295,-3, 0, -1, -1, -2, -2, 0, -2
1491505390303,-1, 1, 4, -1, -1, -1, -1, 1
1491505390311,1, 1, 3, -2, -1, -1, -1, 0
1491505390325,-1, 11, -1, 0, -1, -1, -1, -3
1491505390333,-2, -2, -2, -2, 1, 1, 0, -1
1491505390342,2, -2, -3, -1, -2, 1, -1, -1
1491505390355,-7, 0, 1, 0, -1, -2, -1, -2
1491505390363,-1, 0, -2, 0, 0, 0, -1, -1
1491505390370,-3, -7, -4, -1, -1, -1, -1, -2
1491505390371,-3, 3, 2, 0, -1, -3, -2, -1
1491505390386,2, -14, -2, -2, -1, -2, -3, -2
1491505390393,1, 7, -2, -2, -1, 0, 0, -2
1491505390401,3, 2, -1, -1, -3, -2, 0, -1
1491505390415,1, -3, -2, 0, 1, 1, 0, 1
1491505390423,-1, 4, 0, -2, -1, 1, 0, -1
1491505390430,0, -1, -2, 0, 0, -2, 0, -1
1491505390431,1, 4, 5, -2, 0, -2, -1, -1
1491505390445,-9, 0, -3, 0, -1, -1, -2, -2
1491505390446,6, -3, -1, 0, 1, -1, 1, 0
1491505390453,-1, -6, -3, 0, -1, 0, 1, 0
1491505390461,-4, 1, -2, -2, -2, -2, 0, -1
1491505390476,1, -3, -2, -1, -2, -2, -1, -2
1491505390483,-2, 0, -1, 0, 0, -3, -1, -5
1491505390490,1, -5, -3, -2, -1, 1, -2, -2
1491505390505,-2, 0, 1, -1, 0, 1, -1, 1
1491505390513,-1, 2, 2, -1, 0, -1, 0, -1
1491505390521,-1, 0, -2, 0, -1, -2, -1, -1
1491505390535,-7, -9, -5, 0, -1, -1, -1, -4
1491505390543,-2, 4, 1, -1, -1, 1, -1, -2
1491505390551,-1, 5, 3, 0, 0, 1, 2, 0
1491505390565,-4, 1, -1, -2, -1, 2, 1, -1
1491505390573,-4, 1, -4, -2, -1, 0, -2, -1
1491505390581,-1, -7, -3, -1, -1, 3, 0, 0
1491505390595,-1, -9, -7, -1, -1, -2, 0, -2
1491505390603,-5, -5, -3, -2, 0, -2, -1, -2
1491505390610,2, 1, 1, -1, -1, 0, 0, 1
1491505390625,-1, 0, -1, 0, -2, 0, -1, -1
1491505390633,-1, -5, 5, 1, -1, 0, -3, -1
1491505390641,-2, -4, -1, 1, 0, -3, -1, -2
1491505390655,3, 1, -3, -1, -2, -1, -2, 0
1491505390663,3, 1, 1, 1, -1, -1, -2, 0
1491505390670,-1, -1, -2, 0, 0, 0, 1, 0
1491505390686,3, 7, 0, -2, -2, 0, -1, 1
1491505390693,1, 4, 0, 0, 1, 0, -1, -1
1491505390701,-3, 0, -1, 0, 0, 0, 1, 0
1491505390715,-1, -2, -4, -2, 0, -5, -1, -4
1491505390723,-4, -5, -1, 0, 0, 0, -3, -3
1491505390731,2, 1, 1, 0, -1, 1, 0, 1
1491505390745,0, -7, -2, 0, -1, -1, 0, 0
1491505390753,-2, 0, -2, -3, -1, -1, -2, -1
1491505390761,4, 3, 1, -1, 0, -2, 0, -1
1491505390775,-4, -5, -2, 0, 0, 1, 0, -1
1491505390783,0, -2, 1, -1, -3, -2, -1, 1
1491505390790,0, 2, 3, 1, -2, -3, 0, -2
1491505390805,4, 3, 0, 0, -2, 0, -1, 1
1491505390813,0, 1, 0, 0, -1, 0, -1, -1
1491505390821,-3, -10, -5, -1, 0, -1, -1, -2
1491505390835,-2, -4, -3, -1, -2, 0, 0, 0
1491505390843,-4, 1, 0, 0, -1, 1, -3, 0
1491505390850,-1, -2, -2, -1, -2, -1, -3, -2
1491505390865,-4, 8, -1, -3, 0, 0, -1, -1
1491505390873,-2, -4, -1, -1, -2, -2, -3, -2
1491505390881,-5, -6, -3, -1, -1, -2, 0, -2
1491505390896,3, -4, -4, -3, 0, -1, 0, -2
1491505390903,0, 0, 2, 0, 0, 2, 0, -1
1491505390910,-1, -1, -1, -1, 1, 1, 0, -1
1491505390925,0, -11, -1, -3, -3, -3, -2, -4
1491505390933,-1, 4, 1, 1, -1, 0, 0, 0
1491505390948,-1, 1, -2, 0, -2, 0, -1, -2
1491505390954,-3, -1, 1, 0, -1, -2, 0, -1
1491505390963,1, 2, 0, 0, 0, -2, -1, -1
1491505390977,2, 9, 2, -3, -3, -3, 0, -1
1491505390985,1, 0, -3, -2, -1, -2, -1, -1
1491505390992,2, 12, 11, 2, -2, 1, 0, 1
1491505390993,-7, -7, -5, 0, 0, 1, -1, -3
1491505391008,-3, 3, -1, 0, 0, -3, -2, -1
1491505391015,-1, -1, -1, 0, 0, -1, -2, -2
1491505391023,2, 0, -4, 0, -1, 1, 0, -1
1491505391037,1, 2, 0, -1, -1, -1, 0, 2
1491505391045,4, 1, 0, 1, 0, -1, -1, -1
1491505391053,-1, 1, 1, -2, -1, 1, 0, -1
1491505391068,-4, -10, 0, 1, 0, -1, 0, -1
1491505391074,-1, -13, -5, -2, 0, 0, -1, -2
1491505391083,-7, -4, -2, -2, -1, 1, 1, 0
1491505391097,1, 7, 5, 1, 1, 1, -2, 1
1491505391106,-1, 3, 0, 0, -1, -2, -2, -1
1491505391113,1, 13, 7, 0, -1, -2, -1, -1
1491505391128,2, 5, 1, 0, 0, -2, -3, 2
1491505391134,0, -7, -6, -2, -3, -3, -2, -3
1491505391143,7, 1, -1, 0, 0, 0, 0, -2
1491505391157,-3, -1, -1, 1, 0, -1, 0, -3
1491505391165,0, -6, -5, -2, -1, 0, 1, -1
1491505391173,2, -4, -1, 1, 0, 0, 0, 1
1491505391188,0, 1, 0, 1, -2, -2, 1, 0
1491505391189,-1, -3, 3, -1, -2, -2, 0, -1
1491505391194,-1, 4, -3, -4, 0, 0, 1, 1
1491505391195,-3, -3, 0, -1, -1, -1, -2, -2
1491505391202,2, -4, -3, 0, 0, -1, -1, -3
1491505391203,0, 0, -2, 0, -1, 0, -2, 0
1491505391217,4, -4, -5, -3, -1, -1, -2, 0
1491505391225,-2, -4, 0, -1, -2, -2, -2, -2
1491505391240,-3, 1, -4, -1, -1, -1, 0, 1
1491505391248,-1, 5, -2, -2, -2, -1, -1, -1
1491505391262,5, 0, -3, -2, 0, -1, -1, 1
1491505391264,2, 11, 8, 0, 0, 1, 1, -1
1491505391277,8, 0, 0, -1, -2, -2, 0, -1
1491505391285,-2, -7, -6, -1, 0, 0, -2, -1
1491505391293,-4, -4, -2, -1, -1, -1, 0, -3
1491505391308,-8, -13, -7, -2, -1, -2, -2, -6
1491505391315,-1, -3, -1, -2, -1, 1, -2, -1
1491505391323,2, 3, -1, 0, -3, -1, -1, -2
1491505391337,-4, 1, -1, 0, -1, -2, -1, -3
1491505391345,4, 2, 0, -1, 0, -2, 0, 0
1491505391353,-2, 0, 1, 0, -1, 1, -1, 1
1491505391368,3, -2, -1, -1, -1, 1, 1, 1
1491505391374,-1, -3, 0, -2, -2, -2, -1, -1
1491505391383,-5, 1, -1, -2, -3, -3, -1, -3
1491505391397,-4, 0, -1, -1, -1, -2, 0, -3
1491505391405,-2, 4, 2, 1, 0, 0, -2, -3
1491505391412,-1, -5, -5, -2, -1, -1, -2, 0
1491505391413,1, 6, 3, 0, 0, 1, -2, -1
1491505391428,-3, -13, 1, -2, 1, 0, -1, -1
1491505391434,3, 0, -3, 0, -1, 0, 1, 1
1491505391435,-3, -3, -3, 1, -1, 1, 0, -2
1491505391443,-2, -1, -3, -1, -2, -2, -2, 1
1491505391457,-1, -3, -3, -3, -1, -1, 1, 0
1491505391465,-5, 3, -1, -1, 0, 0, 0, -1
1491505391473,0, 14, 5, 1, 0, 0, 1, -1
1491505391488,0, 4, 1, -1, 0, -1, -2, -3
1491505391494,0, -10, -6, -4, -2, -3, 0, -3
1491505391504,-1, 2, 1, 1, 0, 0, 0, 1
1491505391517,-2, -2, -4, -1, 0, 0, -1, 0
1491505391525,-1, -4, -3, -2, -1, -1, -2, -1
1491505391533,4, 3, 3, 2, 0, -1, -1, 0
1491505391548,-2, -3, -1, -1, 0, -3, 0, 2
1491505391554,-8, -11, -5, 0, -1, 2, -1, -2
1491505391563,0, -2, 0, -1, -1, 0, 0, -3
1491505391577,2, 8, 7, 1, 1, 0, -1, -2
1491505391585,6, 2, -2, -1, -1, 0, 0, -1
1491505391593,-2, -6, -5, -1, -2, -2, -1, -2
1491505391608,-1, 0, 0, 0, 1, -2, -1, -5
1491505391615,6, 3, 1, 0, -1, 1, -1, 1
1491505391623,-1, 12, 2, 0, -2, 0, -1, -1
1491505391637,-8, -9, -3, -2, -1, 0, 0, -3
1491505391645,-1, -5, -3, -1, -2, -1, 0, -2
1491505391653,3, 3, -3, -4, -2, -2, -3, -1
1491505391668,-2, -3, -3, -2, -2, -2, -3, 1
1491505391675,0, -3, -2, 1, 0, 1, -1, -1
1491505391683,-1, -1, 0, 0, 0, 0, 0, 2
1491505391698,2, -6, -4, -4, -1, 0, -1, 0
1491505391705,-4, -3, -4, -1, 0, 1, 2, -3
1491505391713,-3, -2, -1, 1, -2, -3, -1, -3
1491505391728,1, -3, -2, -2, -3, -3, 0, -3
1491505391735,2, -2, -2, 0, 0, 0, 0, -2
1491505391743,-1, -8, -2, -1, -1, 1, -2, 0
1491505391757,-2, -7, 1, 0, -2, -1, -2, -1
1491505391765,-3, -2, -1, -2, 0, -1, -2, -1
1491505391773,-9, -5, -1, 0, 1, 0, -1, -1
1491505391788,-2, 0, -1, 0, -2, -1, 0, 1
1491505391794,-2, 5, -2, 0, 0, -1, 0, -1
1491505391803,0, 4, 1, 0, -1, 0, 0, -1
1491505391817,6, -5, -4, 0, -1, -1, -3, 0
1491505391818,1, 1, 4, -2, 0, 0, 0, 0
1491505391825,0, 6, 6, -1, 2, -1, 0, -1
1491505391833,-1, 2, -4, -2, -1, -1, 0, -4
1491505391848,-1, -3, -4, -2, -2, 0, -2, -1
1491505391855,11, 4, 0, 1, 1, -2, -1, 1
1491505391870,-5, -2, -3, -2, -1, -1, 0, -2
1491505391877,-5, 1, 1, -2, -1, -1, -2, -1
1491505391885,1, 12, 2, -1, -1, -1, -1, 1
1491505391900,-4, -2, 0, 0, -1, -2, -1, -3
1491505391908,-3, -4, -1, 0, -2, -1, -2, 1
1491505391914,-1, 4, 1, 1, -1, -1, -1, -3
1491505391930,3, -3, -3, 0, -1, 2, 0, -2
1491505391937,4, -14, -6, -2, -1, 0, -1, 1
1491505391945,-1, -2, -2, 0, 0, -1, 1, -1
1491505391960,-4, -3, -3, -1, -1, 0, 0, -1
1491505391968,3, -6, -4, -1, 0, 1, 0, -3
1491505391974,2, 2, 0, -2, -2, -1, -1, 1
1491505391990,0, -1, 0, -2, 0, 0, -1, -2
1491505391997,-1, 0, -2, -1, -1, -1, -2, 0
1491505392005,0, -4, -2, -2, 1, 0, -1, -2
1491505392020,-8, -5, -3, -2, -2, 0, -1, -5
1491505392028,-4, -7, -1, -2, -1, -2, -2, 0
1491505392035,-5, -2, 1, -1, -2, 0, 0, -3
1491505392050,2, 2, -1, 0, 0, -1, -2, 1
1491505392057,0, 2, -1, -2, 1, -2, 0, -1
1491505392065,1, 0, 2, 1, -2, -3, -1, -2
1491505392080,2, 3, -1, -2, 0, 0, -1, -2
1491505392088,3, 8, 2, 0, 0, 0, -1, -2
1491505392095,-1, 0, 0, 0, -2, 1, -1, 2
1491505392110,7, -10, -9, -3, -3, -2, 0, 1
1491505392117,-3, 0, 1, -1, 0, -2, -1, -4
1491505392125,-5, -1, 2, -1, -1, 1, -2, 0
1491505392139,2, 3, 1, 0, -2, 2, -1, 2
1491505392140,0, -2, -2, -1, -2, -3, -1, 0
1491505392148,-3, -2, 1, 0, 0, 0, 0, -1
1491505392155,1, 7, 0, 3, -1, -1, -2, 0
1491505392170,1, 1, 1, -1, 0, 0, -1, -3
1491505392179,4, -2, -1, 0, -1, 0, 0, 0
1491505392186,-12, -6, 1, 0, 0, 0, 0, -2
1491505392200,-5, -3, 0, 1, -1, 1, -1, -4
1491505392208,-3, 3, -2, 0, -1, -1, -1, -1
1491505392214,1, -3, -2, -3, -2, -3, -1, 1
1491505392230,2, 7, 11, 0, 0, -1, -1, 2
1491505392239,1, 7, 1, 1, 1, 0, 0, 0
1491505392245,4, -4, -2, -1, 1, -1, -3, -1
1491505392259,-4, -5, -3, -3, -2, -1, -1, -1
1491505392268,-2, -3, -2, -2, -3, 1, -3, -4
1491505392274,-1, -1, 0, -1, -2, 0, -1, -2
1491505392275,-1, -1, -2, -2, 0, -3, -3, -1
1491505392290,1, -3, -4, 0, 1, 0, 1, -2
1491505392297,0, -2, -2, -1, 1, -1, -1, -1
1491505392305,-5, -4, -4, -2, -1, -1, -1, -1
1491505392319,-2, 3, 2, 0, 0, -1, -2, -4
1491505392320,1, -1, 1, 2, 1, -2, -1, -2
1491505392328,-2, -2, -3, 1, -1, -1, 0, -1
1491505392343,-1, 1, 2, 0, 0, -1, 0, 0
1491505392350,3, -5, -3, -2, 0, -1, -3, -2
1491505392358,-2, -2, -5, -1, -1, -2, 1, -2
1491505392365,1, -3, -1, 0, -2, -1, 1, -1
1491505392384,2, 3, 0, -2, -2, 0, -2, -1
1491505392388,0, 4, 1, 0, -1, -1, 0, -1
1491505392403,9, 0, 0, -1, -2, 1, -1, 1
1491505392410,0, 2, 0, -2, -2, -1, -1, 0
1491505392419,2, 1, 2, 0, 0, -1, 0, -2
1491505392425,-2, 3, 1, -1, -3, -2, 0, -2
1491505392441,-5, -4, 0, 1, -2, -1, 0, -1
1491505392448,-3, -1, -2, -2, -3, 0, 1, -2
1491505392463,-3, -3, -1, -2, -1, 0, 0, -2
1491505392470,-1, -3, -3, 0, -1, 0, -2, -1
1491505392481,-3, -1, -2, -2, 0, -1, -2, -2
1491505392485,-3, -3, -2, -1, 0, -3, -2, -4
1491505392502,-3, -3, -2, -1, -1, 0, -1, 0
1491505392508,1, 15, 2, 0, 0, 1, -1, 0
1491505392523,-3, 0, -1, 0, -3, 0, 0, -1
1491505392530,0, 0, -2, 0, -3, 1, 0, 0
1491505392540,-4, -1, -3, -2, 0, -1, 0, -2
1491505392545,1, -5, -2, -1, 0, -1, -2, -1
1491505392561,-5, -3, 0, -1, 1, -2, 2, 0
1491505392568,-1, -5, 0, -1, -1, -1, 1, -1
1491505392583,0, 3, 2, 0, 1, 0, -3, -1
1491505392590,-1, -4, -2, 0, -1, -2, -2, -1
1491505392600,-1, -4, -5, -3, -1, 1, -2, -1
1491505392607,-1, -3, -3, -1, -1, -1, -2, -2
1491505392622,2, 1, -1, -1, -4, -3, -3, -2
1491505392628,1, 2, 4, -1, 0, 2, 0, 0
1491505392645,-5, -6, -2, 0, -1, -1, -1, -2
1491505392650,-1, 0, -1, -2, -1, -1, -1, -1
1491505392659,4, 1, 0, 0, -2, -1, -1, -2
1491505392665,0, -5, -4, -2, -2, -1, -2, 0
1491505392683,3, 0, -1, -1, -1, -1, 0, 2
1491505392688,-4, -2, 1, 1, 1, -1, 0, -1
1491505392705,4, -4, 0, -2, 0, -1, 0, 0
1491505392710,-2, 8, 0, 0, -1, -1, -1, -1
1491505392718,-5, -2, -2, 1, -1, -3, 0, -1
1491505392726,-3, -4, -1, -3, 0, 0, -1, -4
1491505392741,2, 3, 0, -1, -1, 0, -2, -2
1491505392748,-3, -3, -2, -1, 0, 0, -1, -1
1491505392763,-3, 7, 6, 1, 0, -1, -2, 1
1491505392770,-8, -5, -2, -1, -2, -3, 0, -1
1491505392779,-4, 0, -2, -1, 0, -1, 1, -2
1491505392793,1, -1, -2, -1, -2, 0, 0, 0
1491505392801,1, 7, 3, -1, -1, -2, 0, 1
1491505392808,1, 2, -2, 0, 1, -3, 1, -3
1491505392823,2, -3, -2, -1, -2, -2, 0, -2
1491505392830,1, 0, 1, 0, 0, 1, -1, -2
1491505392839,-2, -6, -3, 0, 1, 1, 0, -1
1491505392853,2, -4, 0, -1, -1, 0, -1, 0
1491505392861,-11, -9, -6, -3, -2, 0, -2, -3
1491505392868,1, -3, -2, 0, -1, 1, -2, 1
1491505392883,0, -4, -4, -1, -1, 0, -2, -1
1491505392890,-1, -9, -3, -1, 0, -2, 0, 1
1491505392899,-3, -6, -5, -4, -1, -2, -2, -1
1491505392913,-7, -1, -1, 0, 0, 0, -3, -2
1491505392921,2, 5, 3, -1, -1, 0, 1, -1
1491505392927,2, 5, 1, 0, -1, -1, -2, 0
1491505392944,7, 0, 0, 1, -1, 0, 0, 1
1491505392950,-1, 3, 2, 0, -2, -2, -3, 0
1491505392959,0, 4, 5, 0, -1, -1, -1, -2
1491505392972,-2, -4, -3, -1, -1, 0, 0, -1
1491505392973,1, 4, -2, 1, 0, -1, -1, -2
1491505392981,0, 6, -1, 0, -2, 0, -1, -1
1491505392988,-4, 0, -1, -2, -1, -1, -1, -3
1491505393003,-1, -7, -4, -1, 0, 2, -1, -2
1491505393010,2, -2, -2, 0, 0, -1, 1, -1
1491505393019,-2, 0, -1, 0, 1, -2, 0, 2
1491505393033,1, 9, 1, -1, -1, -1, 0, 2
1491505393042,-1, -1, 0, -2, -1, -1, -2, -2
1491505393048,-1, -4, -1, -2, -1, -1, 0, -1
1491505393063,6, 2, -2, 0, 0, 1, -2, -1
1491505393070,1, -2, -1, 0, 0, 1, -2, -2
1491505393078,-4, -3, -2, -1, -2, -1, 0, -1
1491505393093,0, -1, -1, -2, -1, -1, -2, -2
1491505393102,-2, -7, -3, 0, 0, -2, -3, -4
1491505393108,-1, -4, -1, -1, -2, 0, -1, -3
1491505393126,1, 6, 9, -2, -1, 0, 1, 1
1491505393130,-1, -3, -1, -2, -1, -2, 0, 2
1491505393139,-3, 2, 3, 0, -1, -1, -2, -3
1491505393154,1, -7, -3, 0, 1, 1, -1, -1
1491505393161,-5, -3, -2, 0, -1, 1, -1, -3
1491505393168,-4, 1, -1, 1, -2, -2, 0, 0
1491505393185,-3, 2, -2, -1, -1, -3, -3, -4
1491505393190,-2, 2, 0, 0, -2, -2, 0, -1
1491505393199,2, -2, -3, -1, 0, -2, -1, 2
1491505393213,2, -1, -2, -2, -1, -2, -1, 1
1491505393222,0, -4, -4, -2, 0, -1, 1, -1
1491505393228,-2, -1, 3, 1, 0, -1, -2, -3
1491505393243,-1, 2, -1, 0, -3, -2, -2, -1
1491505393244,0, -1, 0, 2, -3, -2, -1, -1
1491505393250,-1, -1, -2, -1, 1, 0, -1, -1
1491505393260,-2, 1, -2, -1, 1, 1, 1, -3
1491505393273,5, 14, 7, 1, 0, -1, -1, 1
1491505393281,-2, -3, -1, -2, -2, 0, 0, 0
1491505393288,-5, -5, -2, -3, -2, 1, -1, -3
1491505393303,0, 2, -1, -1, -1, 0, -1, 0
1491505393310,-1, -9, -2, -1, -2, -1, -1, -3
1491505393319,1, 14, -2, 0, 0, 1, 1, 1
1491505393320,3, 0, 7, 2, 0, -2, 0, -1
1491505393333,0, -1, -2, -1, 0, -2, 0, 2
1491505393341,-5, 1, -4, -1, 0, 0, 0, -1
1491505393348,-1, -2, -2, -1, 0, -1, -2, -3
1491505393363,0, -10, -5, -1, -2, -1, 0, -1
1491505393370,7, 0, -3, -1, 0, 0, 2, -1
1491505393381,-3, 5, -1, 0, 0, 0, -1, -1
1491505393394,-4, 1, 0, 1, -2, -2, -2, -3
1491505393401,1, -4, -5, -1, 0, -1, 2, 0
1491505393408,3, 12, 8, 0, -1, 2, -2, 3
1491505393424,-3, -3, 0, -2, 0, 0, -2, 1
1491505393430,-2, -2, -1, 1, 0, -1, 1, -2
1491505393439,-3, -4, -3, 1, -1, -1, -2, -3
1491505393454,-4, -4, -3, -3, -2, -1, -3, -1
1491505393461,1, -1, 0, 0, -2, -1, 0, 0
1491505393462,0, -2, 0, -2, -2, -2, -1, 1
1491505393468,-3, -3, -3, 0, -2, -3, -2, -3
1491505393483,4, 4, 3, 0, 1, 1, 1, -1
1491505393484,-1, 0, -2, -1, -4, -1, -1, -1
1491505393490,0, -2, -2, 1, 0, -1, -1, -4
1491505393499,2, -4, 7, 0, 0, -2, 0, 0
1491505393513,0, -4, -3, -2, -1, 1, -1, -1
1491505393521,-1, 1, -5, -4, -1, -1, -1, 0
1491505393528,-5, -6, -3, -2, 0, -1, 1, -2
1491505393543,-2, -2, -2, -2, -1, 1, 1, 1
1491505393550,1, 10, 6, 1, -1, 1, 0, -2
1491505393558,1, 16, 0, -1, -2, 0, -1, 0
1491505393573,-1, -4, -4, -1, -1, -2, -1, 1
1491505393581,2, 5, 4, 1, -2, -2, -2, -3
1491505393588,-3, -3, -1, -1, 0, -1, -2, 0
1491505393603,-2, -10, -4, -2, -2, -1, 0, -3
1491505393610,7, -1, -2, -1, -2, 1, 1, 0
1491505393619,-1, 0, 2, 0, 0, 0, -1, -4
1491505393633,1, 4, 4, 2, 0, -1, -2, -1
1491505393641,-4, -4, -1, -1, -1, -1, -1, 0
1491505393648,-2, -3, -2, -2, -2, -2, 0, 0
1491505393663,-3, 4, 1, -1, 0, 0, -1, -2
1491505393664,1, -4, -2, 0, 0, -1, -2, -2
1491505393670,0, 1, 0, 0, -1, -3, 0, -1
1491505393678,0, -2, 0, -1, 1, -1, 0, 1
1491505393693,-1, -1, -2, -1, 0, 0, -1, 0
1491505393704,-2, -2, -1, -1, -2, -1, -2, 0
1491505393708,6, -3, -4, -2, -1, 0, -1, -2
1491505393723,1, 2, -2, 0, -2, 1, -3, -3
1491505393730,-2, -1, -3, -2, -2, 0, -1, -1
1491505393745,0, 1, -2, -1, 0, -3, -2, -3
1491505393753,1, 10, -1, 0, 1, -3, -2, 0
1491505393761,-2, -3, -3, -1, -1, -1, -2, 0
1491505393775,-2, -4, -1, -1, -2, -2, -1, -1
1491505393792,5, -1, -1, -3, -1, 0, 1, -2
1491505393806,-1, -7, -2, -1, 0, 0, -1, -2
1491505393813,-3, -5, -1, -2, 1, -1, -2, -5
1491505393821,5, -2, -3, -3, 0, -1, -1, -2
1491505393835,0, -3, -2, 0, 1, -1, 0, 1
1491505393843,-3, 0, -1, 1, -2, 1, 1, -1
1491505393850,-4, -8, -5, -1, -1, 0, -2, -1
1491505393866,-2, -10, -4, -1, 1, -1, 0, -1
1491505393874,-4, -1, 1, 0, -2, 1, 0, -1
1491505393881,-2, 3, 0, 0, -1, -1, -1, -3
1491505393895,-2, 2, 0, -2, -2, 0, -2, -1
1491505393903,1, -3, -2, -1, 1, 2, 0, 1
1491505393910,-2, 2, 0, 0, -1, -1, 1, -1
1491505393925,-1, -1, -2, 1, -3, -1, -2, 1
1491505393932,-1, 4, 4, 1, -1, -1, 0, 0
1491505393933,-2, -3, -1, 1, 0, -1, -1, -2
1491505393941,-1, 2, 1, -1, -1, 0, -2, 0
1491505393955,6, 1, 1, 0, 1, 0, -2, -2
1491505393963,-3, 5, 2, -1, 1, 1, 0, -2
1491505393970,-1, 4, 3, 0, 0, 0, 0, 0
1491505393985,-2, 4, -1, -2, -1, -2, 0, -1
1491505393993,-4, -4, -3, 0, 0, -1, 1, -1
1491505394001,1, 1, 1, -1, -1, -1, -2, 0
1491505394015,1, -3, -2, -3, -1, -2, -2, 0
1491505394023,-1, 9, 8, 0, 1, -2, 1, 1
1491505394030,-4, -5, -2, 0, -2, 0, -1, -1
1491505394045,2, 1, 0, -1, -2, -2, 1, 2
1491505394046,-1, -7, -3, -1, 0, -2, -3, -1
1491505394053,5, -3, -2, -1, -1, -1, -3, 0
1491505394061,-1, -1, -3, -1, 0, -1, 0, 0
1491505394076,-7, -2, -3, -3, -1, 0, 0, -1
1491505394084,1, -1, -1, -1, -1, -1, -1, -2
1491505394090,-2, 4, 3, 0, 0, -2, -2, -1
1491505394105,0, 1, -1, -2, -1, 1, 0, -2
1491505394113,0, 0, -1, -1, -1, 1, 1, -1
1491505394121,1, -1, -1, 0, -2, -2, -1, -2
1491505394135,1, 1, 0, 0, -2, 0, -2, -1
1491505394143,0, -4, -3, 0, 0, 0, -2, -2
1491505394150,-2, 1, 2, -2, 0, -2, 0, 0
1491505394165,1, -5, -1, 0, 0, 0, 0, 1
1491505394173,-3, -2, 0, 0, -1, 0, 1, -2
1491505394181,1, 6, 2, 0, -2, 2, 0, -2
1491505394195,-8, -5, -3, -1, -1, -1, -2, -2
1491505394207,-7, -4, -2, -1, -1, -2, -1, -3
1491505394210,-4, -2, -3, -3, -1, -1, -2, -3
1491505394225,-1, -4, -2, -2, -1, -3, -3, -2
1491505394232,1, 4, 1, 0, 0, -1, 0, -1
1491505394233,0, -17, -6, -1, -2, -1, -2, 0
1491505394241,2, -3, -2, -1, -1, 0, -1, -1
1491505394255,3, 2, 0, -1, -1, 0, 0, -2
1491505394263,1, 6, 1, 1, -2, -1, -1, -1
1491505394270,3, 8, 6, 2, 1, -1, 0, 1
1491505394288,-5, 0, -1, -1, -2, -1, 0, 0
1491505394294,6, 0, -2, -2, -1, -2, 0, -1
1491505394301,0, -2, -2, -1, 0, -1, -1, -3
1491505394315,-3, 1, 0, -1, -1, -2, 0, -1
1491505394323,-1, 14, -2, -1, 0, 0, 2, -2
1491505394330,-1, 2, 0, 1, -1, 0, 0, -2
1491505394345,3, 7, 5, 0, -2, -1, 1, -1
1491505394352,1, 6, 6, 0, -1, 0, -1, 0
1491505394353,-1, -2, -1, 0, -1, 1, -2, -1
1491505394361,-1, -11, -5, -2, -1, 0, -1, -1
1491505394375,4, -3, -1, -2, 0, -1, -1, 0
1491505394383,1, -2, -1, 0, -1, 0, -1, -1
1491505394390,-6, -3, -4, -1, 0, -1, -1, -2
1491505394405,9, -1, 0, -2, 0, -1, -2, 1
1491505394413,0, -1, 0, 0, -3, 0, 1, -1
1491505394421,-3, 5, 5, 1, -1, 0, -1, -3
1491505394435,-2, 0, 1, -2, -1, 0, -1, -3
1491505394443,-5, -5, -5, 0, -1, -1, 1, 0
1491505394450,2, 17, 5, 2, 0, -1, -1, 1
1491505394465,-2, -2, -3, -1, -2, 0, -3, -3
1491505394466,-7, -8, -5, 0, -1, -2, -2, 0
1491505394473,-1, -6, -4, -1, -1, -1, 0, -1
1491505394481,-1, -1, -2, 1, -2, 0, -2, 0
1491505394495,-1, -1, 1, -2, 0, -2, -2, -2
1491505394504,-2, -8, -5, 0, -1, 0, 1, -1
1491505394510,0, 0, -1, 0, -2, -2, -1, -1
1491505394525,3, -2, -2, -3, -2, -1, 0, -1
1491505394533,-3, -1, -2, 0, -1, -1, 0, 0
1491505394542,-1, 0, 0, 0, -1, -1, -1, -1
1491505394555,-1, -6, -2, -2, 0, 1, -2, -3
1491505394565,0, 1, 0, -2, 0, -2, -1, 1
1491505394570,-2, -4, -2, 0, 0, -1, -2, 0
1491505394585,-3, 1, 2, -2, 1, 1, 0, -2
1491505394593,-7, -3, -1, -1, 0, -2, 1, -1
1491505394602,-1, -2, 0, 0, -1, 0, -2, -2
1491505394615,-6, -1, -2, -1, 0, 1, -1, 0
1491505394625,0, 6, 6, -1, 1, 0, -1, -3
1491505394630,0, 5, 5, -1, -2, 0, 0, -1
1491505394645,0, 1, -1, 0, 0, -1, -2, 1
1491505394653,4, -3, -2, 0, 1, 1, 0, 0
1491505394668,1, 6, 2, -1, -1, 0, 0, 0
1491505394675,-6, -4, -3, -1, 0, -1, -2, -1
1491505394676,13, 6, -1, -1, -1, -1, 0, 1
1491505394683,-2, -3, -3, 11, 1, 0, -2, -1
1491505394697,-3, -2, -6, -2, -4, -2, -1, -2
1491505394705,-1, -3, 4, 6, 4, -1, 1, 0
1491505394714,-1, -3, -1, 1, -1, -2, -3, -4
1491505394728,-4, -6, -5, 0, 2, 0, -3, -5
1491505394735,-6, -10, 5, -4, -1, -1, 0, 1
1491505394743,-2, -4, -2, -8, -3, -2, -2, -2
1491505394758,-6, -2, -2, -3, -3, 1, -1, -1
1491505394759,3, -2, -4, 5, -2, 0, -1, 1
1491505394765,4, -2, -1, 6, 2, 1, 1, 1
1491505394772,-4, -2, 0, -3, -2, -1, 0, -2
1491505394788,8, 1, -3, -6, -6, -3, 0, 1
1491505394795,0, 5, 2, -1, 2, -1, -4, -3
1491505394803,9, -6, -6, -9, -4, -2, -2, -4
1491505394817,-2, -5, -1, -3, 0, -2, 0, 4
1491505394825,-9, -1, 0, -3, -1, 0, -1, -3
1491505394833,0, 13, 9, 6, 0, 0, -1, 8
1491505394848,-3, -5, -1, -2, -3, 0, 0, -8
1491505394855,12, 7, 0, -1, -1, 0, -2, 3
1491505394864,5, 6, 0, -5, -5, -2, 0, 18
1491505394877,0, -5, -2, 3, 3, 0, 0, 93
1491505394878,-5, 1, -4, -9, -3, -2, 2, 1
1491505394887,3, 16, 6, -3, 0, 1, -1, -50
1491505394893,5, -8, -7, 0, 3, 0, -1, -34
1491505394908,-5, 10, -1, -2, -2, 0, 0, -54
1491505394915,6, -20, 0, 2, -1, 1, -2, -38
1491505394916,-7, 37, 11, 2, 0, -1, 1, -3
1491505394923,0, 6, 4, 4, 3, 0, -1, 36
1491505394937,-7, -12, -7, -10, -3, 1, -2, 0
1491505394945,-7, 1, 11, -1, -4, 1, 0, 24
1491505394953,-4, -9, -1, 8, 4, 0, -3, 7
1491505394968,-3, -13, -2, 1, -4, -1, 2, 8
1491505394975,1, -9, 3, -1, -3, -1, -2, 2
1491505394983,-6, -12, -7, -2, 2, -2, -3, -3
1491505394999,-3, -6, -7, -1, -3, -2, -1, -1
1491505395006,-10, 0, 6, 0, 2, 1, 1, -17
1491505395007,12, 2, 3, -3, -1, 1, 0, 26
1491505395013,15, 57, 15, 5, 2, -1, -1, 4
1491505395027,-8, -2, 7, -2, -4, 0, -2, -4
1491505395028,-1, -6, -12, 0, 1, -1, -1, -4
1491505395035,-1, -10, -3, -3, -6, -1, 1, 7
1491505395043,4, 6, -3, 0, 7, -1, 0, 7
1491505395058,-10, -25, -19, 1, 8, 1, 1, -8
1491505395073,1, -8, -12, -4, -2, -3, -2, -7
1491505395074,-1, -8, 0, -10, -7, -2, 0, -7
1491505395088,-3, -5, 0, -6, -3, 0, -1, -1
1491505395095,-8, -7, 1, 2, 2, 0, 1, -7
1491505395103,0, -4, -6, 1, -3, -1, 0, 0
1491505395118,-8, -15, -7, -2, -3, -2, -1, -15
1491505395126,-9, -9, -3, -3, 1, -2, -4, -6
1491505395133,9, -4, -3, 2, 3, -1, -2, 13
1491505395148,8, -9, -3, -1, 5, 0, 2, 49
1491505395155,-2, -3, 2, -7, 4, -3, -3, 8
1491505395163,6, 5, -3, -4, -6, -2, -4, -16
1491505395178,5, 6, 18, 1, -5, 1, 3, 5
1491505395186,-19, -12, -1, 3, -2, -1, -2, -13
1491505395193,0, -3, -7, -2, -5, -2, 0, -2
1491505395208,-6, 2, 3, 4, 2, -1, -3, -9
1491505395215,-10, -13, -9, -5, 0, 0, 1, -14
1491505395223,25, 16, 17, 1, 1, 0, 3, 23
1491505395238,-2, -6, -9, -8, -2, 0, -1, 5
1491505395246,4, -2, -4, -2, -7, 0, 0, -9
1491505395253,-7, -1, -1, -1, -3, 0, -1, -7
1491505395274,0, 6, 6, 1, 1, 0, -3, -14
1491505395275,0, -25, -10, -5, -1, 1, 1, 17
1491505395276,-10, -11, -12, -3, -14, -1, -3, -5
1491505395283,-3, 3, 1, 1, -4, -3, -4, -14
1491505395298,6, -4, -6, -1, 0, -4, -2, 5
1491505395306,-11, 2, 3, 8, -4, 2, -1, -10
1491505395312,3, -9, -3, 1, 3, -2, 0, 3
1491505395313,5, 11, 14, 5, 3, 1, 0, 1
1491505395328,-2, 19, 9, 3, 9, -1, 1, -6
1491505395335,11, 16, 33, 9, 4, -2, 2, 14
1491505395343,-3, 14, 4, -5, -3, -1, 1, -2
1491505395358,-4, -13, -16, 2, 5, -1, -1, -6
1491505395366,-3, -7, 0, -15, -4, -1, -3, -9
1491505395373,-3, -5, -6, 2, -11, 0, 0, -12
1491505395388,-5, -6, -12, 3, -2, -3, -6, -9
1491505395395,-6, -3, -4, 1, 11, 2, 0, 2
1491505395403,-1, -5, -3, 6, 14, 4, 1, -6
1491505395418,-22, 3, -3, 2, -2, -1, -5, -39
1491505395428,1, -13, 15, -3, -2, 1, 8, 49
1491505395440,1, -15, -19, -6, -8, -2, -1, 13
1491505395452,-3, 1, -4, 1, -5, -3, -1, -23
1491505395455,1, -42, -19, -17, -6, -2, -1, 5
1491505395463,2, -2, -8, 1, -1, -2, -1, -4
1491505395478,-3, -1, -4, -1, -9, -2, -4, -15
1491505395486,12, 23, -9, -1, 1, -2, -8, -38
1491505395493,-11, -9, -3, 11, 7, 4, 2, 5
1491505395508,-18, 1, 5, -1, -9, -3, 2, 13
1491505395515,5, 16, 8, -3, 1, -3, -2, -7
1491505395523,-12, -6, -1, -11, 1, -1, -4, 5
1491505395538,10, 10, 7, -5, -5, -2, -1, 4
1491505395546,9, -4, -7, 1, -2, -2, 1, 5
1491505395553,10, 10, 3, 0, 0, -1, 0, 12
1491505395568,-10, -2, 2, -14, -12, 2, 1, -18
1491505395575,14, 11, 4, 11, -3, 4, 4, 32
1491505395585,-7, -7, -3, 5, -1, -2, -1, -5
1491505395598,-4, -7, -2, -3, -1, -2, -2, -17
1491505395606,15, -1, -2, 5, 5, 1, -1, 5
1491505395620,12, 10, 1, -3, 2, -2, -4, 4
1491505395629,-1, 7, 17, 2, 0, 0, 1, -4
1491505395630,0, -12, -13, -3, -4, -3, -5, -2
1491505395635,-11, -13, -4, -8, -1, 0, -2, -6
1491505395650,-7, -14, -8, -6, 0, 3, 1, 6
1491505395658,-1, 8, 8, -1, -4, 1, -1, -6
1491505395669,-5, -12, -9, -3, -6, -3, -1, -4
1491505395679,-10, 11, 20, 0, 0, -2, -2, -8
1491505395680,17, 15, 14, 7, -2, 0, 1, 4
1491505395688,14, 16, 4, 2, 2, -2, -2, -1
1491505395695,-8, -13, -17, 4, 7, -2, -4, -16
1491505395710,-9, -3, 0, -4, -3, 2, 1, -2
1491505395718,-13, -8, -11, -14, -5, -3, -5, -7
1491505395727,1, 10, 8, 3, -4, -3, -2, -2
1491505395739,-5, 2, 3, -4, -2, -2, -2, 2
1491505395748,1, 0, 4, 9, 3, -1, -2, -2
1491505395755,-7, -4, 5, 3, 0, 0, 3, -11
1491505395770,-4, -4, -3, -2, -2, -1, -2, 14
1491505395778,-6, -5, -5, -5, 2, 0, 2, -1
1491505395786,1, 11, 0, -15, -7, -3, -5, -9
1491505395799,16, 9, 2, -20, 0, -1, -2, 8
1491505395808,-16, -8, 0, 1, -1, 1, -2, -6
1491505395815,-2, -7, -8, 10, 4, -2, 1, -2
1491505395830,0, 3, 2, 8, 11, 5, 5, 3
1491505395838,6, 4, 1, 7, 6, 2, 4, 9
1491505395847,-3, 1, 6, 3, -1, 0, -1, -4
1491505395860,-9, 0, -2, 5, -4, -1, -1, -6
1491505395867,-4, -7, -1, 16, 20, 3, 0, 0
1491505395875,1, 1, -7, -1, 2, -2, -2, 3
1491505395890,12, 4, -4, -5, -4, -1, 0, -8
1491505395897,-15, -12, -4, 0, -5, 2, 2, -10
1491505395905,0, -4, 1, -6, -6, -6, -2, -17
1491505395920,-2, -4, -6, 3, 0, -2, 0, -2
1491505395927,-4, 1, 0, -19, -3, 2, -1, 8
1491505395942,5, 5, 6, 2, 2, 0, -1, 3
1491505395950,16, 2, -4, 5, 0, -1, 3, 20
1491505395957,-43, -11, 3, -2, -3, 2, -2, -11
1491505395958,6, 9, 5, -1, 0, 0, 1, -10
1491505395965,-32, -7, 5, 12, 4, 1, -3, -28
1491505395979,22, 5, 2, 5, 17, 0, 8, 38
1491505395988,15, 2, -1, -9, -13, -4, -2, -5
1491505395995,-8, -1, 3, 4, -8, -2, -5, -3
1491505396010,-7, -9, -6, 5, 1, -2, -1, 0
1491505396018,4, 0, 1, 2, 1, 0, -3, 9
1491505396025,-1, -1, -4, 3, 0, -4, 3, 14
1491505396039,13, 3, -8, -9, -10, -2, -3, -28
1491505396048,3, -5, -2, -1, 6, 4, 3, 21
1491505396055,12, 8, 23, 0, -2, 0, -2, 10
1491505396070,-5, -6, 6, 6, -1, 1, 2, 19
1491505396077,-17, -16, -14, -5, -9, -4, -3, -13
1491505396085,-9, -6, -7, 8, 20, 21, 36, -2
1491505396099,-2, -1, -5, -2, 5, 4, 14, -1
1491505396108,9, 11, 2, -10, -7, 0, 5, -11
1491505396115,-6, 6, 3, -12, -13, -5, -16, -33
1491505396131,-5, 6, 5, -2, -4, -8, -9, 16
1491505396137,-59, -12, -4, -8, -7, -1, -6, -4
1491505396146,21, 7, 1, -4, -4, -6, -21, -3
1491505396159,-15, -8, -2, 3, 1, 0, 2, 7
1491505396167,-5, -6, -1, -8, -9, -7, -9, -16
1491505396175,-8, -3, 4, 1, 18, 7, 17, 9
1491505396190,-10, 3, 0, -2, -17, -1, -5, -9
1491505396197,23, 8, -2, 1, -2, 5, 15, 13
1491505396205,4, 7, 1, 5, 6, -8, -5, 11
1491505396227,-15, -15, -3, 1, 3, 3, -13, -1
1491505396229,-11, -13, -8, -1, 1, 2, -2, -20
1491505396235,26, 3, 3, -1, -1, -5, -4, 32
1491505396250,22, 7, -5, -4, -1, 3, 8, -8
1491505396258,9, -11, -5, 3, -4, -6, -9, 16
1491505396266,0, -10, -2, 0, -2, -1, -3, 1
1491505396279,-17, 7, -5, -2, 0, -2, -3, 18
1491505396287,14, 34, 28, 1, -2, -4, -5, -1
1491505396295,-21, 9, 17, 7, 0, -3, -3, -20
1491505396310,-21, 18, -5, 1, 1, -3, 0, 27
1491505396317,-46, -6, 19, 8, 4, 0, -12, -65
1491505396318,61, -43, -30, -12, -4, -1, 4, 31
1491505396325,-19, 6, -22, -10, -4, -4, -6, -25
1491505396326,-1, 38, 40, 10, 3, 1, -5, 5
1491505396341,-12, 10, 4, 4, 0, -1, -5, -25
1491505396347,4, -2, -10, -8, -1, -1, 1, -2
1491505396355,6, 7, 0, -3, -1, -1, -4, -29
1491505396370,-6, -11, 2, 0, -1, -2, -4, -23
1491505396383,-2, 3, -10, -3, -3, -1, -5, 9
1491505396385,22, 12, -7, 0, 5, 1, 0, -19
1491505396399,-2, 4, 1, 0, -1, -1, -1, -16
1491505396408,-35, -51, -33, -8, -6, -1, -4, -18
1491505396415,-2, 21, 24, 7, 0, 0, 3, 17
1491505396430,-7, -19, -15, -9, 0, -5, -4, -7
1491505396439,-9, -10, -8, -1, 0, 0, 0, -8
1491505396445,-1, 24, 31, 8, 2, -2, -2, -6
1491505396446,-1, -12, 0, -1, 0, -1, 4, -2
1491505396459,-5, -4, -4, -2, 1, 0, -4, -30
1491505396468,-32, -5, 3, 2, -3, 2, 1, -2
1491505396475,48, 14, -1, 0, 0, -1, 6, 31
1491505396490,25, -2, 8, 3, -2, -2, -5, -27
1491505396498,-25, -7, 6, 1, 0, -1, -7, -4
1491505396505,-19, -17, -13, -4, -2, -2, -3, -6
1491505396520,-3, -15, -5, 0, 0, -1, -2, -15
1491505396527,45, 11, 9, 5, -1, 2, 2, 30
1491505396542,-17, -1, -3, -3, -1, -1, 3, 4
1491505396550,-36, -13, -4, -3, 0, -2, 0, 10
1491505396559,8, -5, 1, 1, -1, 1, 1, 29
1491505396572,18, 32, -9, -5, -6, -3, -3, -8
1491505396581,36, 2, 22, 5, 0, 0, 5, 11
1491505396582,-38, 5, -11, -3, -1, -2, 0, -11
1491505396587,10, 18, 8, 1, -2, 0, 0, 20
1491505396603,25, 5, -7, -3, -1, 1, -1, 3
1491505396611,-5, -14, -15, -4, -1, 0, -4, -33
1491505396618,2, 3, 31, 5, 0, -2, -4, -19
1491505396633,51, -6, -3, -2, -3, 0, 0, -1
1491505396639,-65, -12, -9, 0, -3, -1, -5, -3
1491505396640,13, -12, 1, -3, 2, 1, -3, -20
1491505396648,4, 58, 3, 3, 0, -4, -2, -11
1491505396665,-26, -16, -20, -3, -5, -3, 1, -13
1491505396671,-5, -26, -7, -6, -1, -2, 2, 10
1491505396678,-4, 16, 4, -1, -1, 0, -2, -4
1491505396694,-17, -26, -2, -2, 1, 2, 2, -5
1491505396702,1, 17, 15, 2, -2, -5, -6, -5
1491505396707,-10, 8, 6, 1, -4, -1, -1, -8
1491505396708,31, -6, 5, 1, -2, -2, 1, 12
1491505396722,46, -4, -19, -1, 1, 0, -1, -2
1491505396730,-5, -4, 2, -3, -2, 0, -2, 7
1491505396737,13, -2, -5, 0, 1, -1, -3, -17
1491505396738,-15, 5, 7, -1, -2, 0, -1, -5
1491505396753,-15, -17, -9, -3, -7, -2, -4, -1
1491505396759,-15, 4, 1, 2, 3, 1, 3, 15
1491505396768,-9, 12, -1, 1, 0, 2, -1, 3
1491505396782,10, 13, -7, -4, -4, -5, -5, -8
1491505396790,-8, -10, -4, -2, 0, 1, 3, 23
1491505396798,4, -33, -25, -4, -2, -2, -3, 0
1491505396813,-6, -3, 4, 3, 2, 0, 0, -15
1491505396819,-21, -16, -11, -2, -2, 0, 0, 2
1491505396828,-15, -11, 12, 6, 4, 1, 4, 1
1491505396842,8, 2, 3, -1, -1, -2, 1, -4
1491505396850,9, 4, 2, -1, 0, -1, -5, -5
1491505396858,-6, 6, 9, 1, 1, 1, -1, -1
1491505396873,-5, -2, 0, -2, 1, 0, 1, -1
1491505396880,-4, 2, -2, -1, -1, 0, -1, -6
1491505396888,9, -7, -2, 1, 0, 1, 0, 1
1491505396902,-2, -5, 2, 2, -1, 0, 0, -2
1491505396910,-2, 1, -5, -4, 0, -4, -1, -7
1491505396918,6, -6, -7, -6, -5, 1, 3, 3
1491505396933,-17, -4, 3, 0, -4, -1, -3, -3
1491505396940,2, 8, 4, -2, 0, -2, -3, 5
1491505396948,-16, -17, -11, -1, 0, -3, -1, 1
1491505396963,-4, 8, 11, 1, 5, 1, -2, -14
1491505396970,-7, -8, -5, -3, -2, -1, -4, -4
1491505396981,7, 6, -2, 0, -3, -1, 1, -2
1491505396992,4, 16, 7, 2, 2, -1, 2, 1
1491505396993,16, 10, 7, -3, -1, 0, 2, 11
1491505396999,-8, -7, -4, 0, 9, 1, 1, -5
1491505397007,-6, -5, -3, -7, -4, -3, -2, -8
1491505397008,8, 11, 2, -1, -1, 0, -3, -13
1491505397022,-15, -4, 3, -2, -9, -3, -3, -13
1491505397030,-4, 4, 3, 8, 1, 0, 1, 5
1491505397038,14, -5, -3, -5, -8, 0, -1, 6
1491505397053,0, -2, -5, 3, 5, -1, -1, 5
1491505397059,-2, -1, -5, -2, -6, -3, 0, -4
1491505397068,-2, 0, 1, 5, -1, 1, -1, -22
1491505397082,-13, -17, 1, -2, 0, -2, -3, -10
1491505397090,12, 9, -6, -4, 0, -1, 0, -2
1491505397098,7, -6, -8, -5, 2, 1, 2, 11
1491505397113,-24, -11, -3, -2, -1, -3, -4, 1
1491505397119,-7, 0, 5, 4, 4, 3, 0, 1
1491505397127,-2, -7, -1, -2, -1, -2, -3, -4
1491505397128,6, 10, -1, -6, -6, -2, -1, 7
1491505397142,2, -4, -1, 2, -2, 0, -1, 2
1491505397150,12, 10, 1, -10, -6, -2, -1, -2
1491505397158,-6, 9, -17, -5, 1, -2, -2, 2
1491505397172,0, -24, 13, 6, 0, 0, 1, 3
1491505397173,-8, -5, 7, 3, -1, -1, -2, -3
1491505397179,-7, 6, -3, -1, -7, -3, -2, 6
1491505397188,-3, 3, 26, -1, 2, 2, 2, 7
1491505397202,-8, -1, 8, -8, -4, 0, -2, -6
1491505397210,10, -24, 1, 17, 1, -2, -2, -5
1491505397218,-1, -5, 1, 8, 9, 4, 1, -3
1491505397233,0, 6, -12, -6, -4, -1, 2, -3
1491505397239,3, -1, 5, 4, -3, 0, 1, -1
1491505397248,-4, 27, -4, -3, 1, -2, -3, 4
1491505397263,22, 4, 16, -1, -2, -2, -2, -1
1491505397270,-15, -8, -6, -3, -1, -2, -2, -7
1491505397278,-9, -5, -10, -3, 2, -2, -2, 1
1491505397292,5, 7, -8, -10, -6, 1, -1, -17
1491505397299,-3, -7, -1, -4, -6, 0, 2, 5
1491505397308,-21, -33, -19, -1, 0, 1, -3, -4
1491505397322,-11, 9, 1, 2, 1, 0, 0, -11
1491505397330,2, 11, 7, 2, 4, 0, -1, -1
1491505397346,-2, 2, 9, 11, 5, -2, -3, 4
1491505397352,-11, -6, 1, -1, -1, -2, -1, -1
1491505397360,29, 1, -2, -2, -1, 1, 2, 5
1491505397361,-6, 4, -1, -4, 1, 1, -1, -2
1491505397368,-5, 10, 4, 2, 2, 0, 0, 8
1491505397383,16, -4, -6, 0, -1, -2, -4, 1
1491505397390,-3, 2, 4, -5, 1, 0, -1, 5
1491505397405,40, 1, -2, 0, -3, -2, 1, 7
1491505397412,11, 3, -8, 1, -4, -3, -1, -5
1491505397420,8, -21, -15, 1, 3, -1, 1, 2
1491505397427,-14, -8, 4, -3, -3, -2, 0, 1
1491505397443,-10, -5, -6, -11, -4, 0, 0, 0
1491505397450,-16, -16, -7, -4, 5, 0, -4, -7
1491505397465,-2, 1, -7, -5, -2, -2, -3, -3
1491505397466,1, 6, 4, -1, -3, -2, 0, -6
1491505397473,-9, -20, -11, -1, -3, 2, 1, -6
1491505397482,-12, 10, 8, 0, 3, 2, -1, 2
1491505397495,10, 7, 4, 4, 1, 0, 0, -3
1491505397503,-18, 0, 5, 5, -1, 1, -2, -9
1491505397510,-2, -12, -5, 1, 0, 2, 3, 7
1491505397526,4, -2, 3, 0, -4, -5, -1, -2
1491505397539,-2, -18, -7, -5, -3, -4, -5, -4
1491505397541,-12, -4, -2, 1, 3, 2, -1, 12
1491505397555,13, 27, 22, 6, 2, 1, 2, -2
1491505397563,0, 6, 3, 1, -2, 0, -4, -16
1491505397570,8, 3, -8, -3, -3, -1, 0, -12
1491505397586,-10, -1, 3, 3, 4, 1, 2, 25
1491505397592,12, 0, 1, 2, -3, -3, -6, -13
1491505397608,-12, -2, -9, -8, -2, -4, -7, 2
1491505397615,1, 0, 0, -1, -2, 1, 5, -7
1491505397630,3, 43, 25, 7, 5, 2, 6, -2
1491505397631,-15, 16, 0, -8, -6, -3, 7, 53
1491505397645,8, -8, 3, 2, 0, 0, -4, -24
1491505397653,20, -6, -9, -4, -2, -2, -1, -21
1491505397669,27, 12, -12, -6, -5, -4, 0, -8
1491505397675,-1, 12, 4, 2, 3, 0, -2, -4
1491505397684,-21, -25, -12, -3, -5, -4, -4, -24
1491505397692,-6, -23, -12, -1, -4, -2, -3, -7
1491505397707,7, 3, 2, -5, -2, 0, -2, -18
1491505397712,-1, -17, 1, 2, 4, -1, 0, 18
1491505397728,18, -9, -4, 1, 0, 0, 1, 8
1491505397735,-5, -4, -5, -1, -2, 0, -7, -28
1491505397743,-8, -19, -6, -4, -1, -2, -2, 6
1491505397750,12, 4, 7, 6, 5, 3, 2, -4
1491505397767,-2, -3, 3, 4, 0, 3, 5, 9
1491505397776,-12, -13, 13, 5, 3, 1, 2, -15
1491505397789,-5, 4, 5, 0, -1, -1, -2, -7
1491505397795,-4, -10, -7, -3, -2, -2, -4, 1
1491505397805,-5, 4, -4, -2, -2, -1, -1, 13
1491505397812,3, 5, 1, 0, -5, -2, -2, 5
1491505397825,-1, 3, -5, -1, -2, -2, -2, -1
1491505397832,1, 2, -16, -4, -4, -2, -1, -6
1491505397848,-2, -10, -11, -4, -2, -2, -2, 4
1491505397855,-4, -3, -5, -1, -3, -1, -2, 2
1491505397863,-13, -7, -2, -1, 3, 0, -1, -1
1491505397870,-3, 2, -1, -3, 2, 0, 0, 10
1491505397886,-7, 1, 3, 1, -1, 0, -2, -7
1491505397894,0, 7, 3, -5, 0, 0, -1, -5
1491505397908,-4, -9, -7, -4, -4, -2, -1, 1
1491505397915,2, -13, -4, -3, 1, 1, 1, 9
1491505397923,-5, -2, -2, 0, -1, -2, -2, -23
1491505397930,-1, 12, 6, 1, -2, -2, -2, -15
1491505397946,-5, -1, 2, -3, -1, 1, 0, 14
1491505397954,4, 9, 4, 2, 0, 0, 2, 14
1491505397975,2, -10, 3, 2, -1, -1, -5, -8
1491505397976,-3, -13, -7, -3, -2, 0, -1, 6
1491505397983,1, 1, 0, 1, 5, 2, 2, 0
1491505397990,-5, -4, -2, -3, 3, 0, -3, -4
1491505398005,1, 3, -1, 0, -3, -2, 1, 0
1491505398013,-2, 11, 4, 0, 5, 2, 1, -5
1491505398031,6, 10, 8, 2, 8, 1, 0, 8
1491505398035,0, -2, -2, -1, -5, -4, -3, 4
1491505398043,0, 1, -4, -1, -3, -1, 0, 6
1491505398050,5, 5, 3, -1, -1, 0, -2, -4
1491505398066,6, -5, -2, -1, -4, 0, -1, -3
1491505398073,9, 14, 3, 1, -1, -1, -1, 1
1491505398088,-6, -10, -4, -2, -3, 0, 1, 24
1491505398095,-6, -5, -3, 0, -1, -1, -4, -17
1491505398104,5, 9, 2, -1, -2, -3, 0, -18
1491505398111,-1, -7, -3, -1, -2, -2, -1, -3
1491505398126,-3, 1, -1, 1, 0, 0, 0, 9
1491505398133,1, -2, -2, 1, -1, -3, -1, 13
1491505398148,0, -22, -5, -1, -2, -1, -1, 2
1491505398155,-3, 8, 2, -1, 0, 0, 2, 3
1491505398164,-1, -9, -6, -1, -1, 1, -1, -8
1491505398170,-10, -10, 7, -1, -1, -1, -1, -17
1491505398186,2, 12, 4, -2, 0, -1, -1, -9
1491505398192,-2, -6, -1, 1, 1, 2, -1, 9
1491505398193,1, -3, -5, 0, -1, -2, 1, 9
1491505398209,5, 11, 4, 0, 0, -1, -1, 6
1491505398215,4, 6, 2, 1, 5, -1, -3, 0
1491505398223,0, 3, -5, -1, 1, -2, 1, -1
1491505398230,0, -9, -6, -5, -3, -3, -3, 1
1491505398245,3, 52, 15, 0, 1, 1, -1, -2
1491505398253,-5, -14, 1, 1, 0, 3, 3, -2
1491505398268,2, 3, 4, 0, -1, -1, 0, -5
1491505398275,-2, 4, -4, -2, -2, 0, -2, 0
1491505398283,-5, -10, -1, -1, -1, 0, -2, -3
1491505398290,-1, -2, -1, 1, -1, 1, -1, 1
1491505398305,-1, -6, 0, -1, 0, -1, -1, -4
1491505398306,1, -6, -5, -1, -2, -3, -3, -2
1491505398313,4, -18, -4, -2, -3, -3, -2, 0
1491505398328,-5, -10, -3, -2, 0, -2, 0, -7
1491505398335,0, -7, -6, -3, -2, -1, -2, -4
1491505398343,3, -11, -4, -1, 0, 2, 2, -2
1491505398350,-2, 2, -4, -2, -2, -2, -2, -5
1491505398366,-2, -2, -5, -2, -1, -3, -1, -4
1491505398372,6, 15, 3, 1, 0, 2, 1, 0
1491505398380,-2, -4, -4, -2, -2, -1, 1, 0
1491505398381,0, -3, 1, 0, -2, 0, 0, -2
1491505398395,0, 15, 0, 0, 0, -1, -1, 0
1491505398403,-9, -23, -6, -1, -1, 0, 1, 0
1491505398418,-3, -11, -3, -3, -3, -1, -1, 1
1491505398425,2, 22, 2, -1, -1, -2, -2, -1
1491505398432,3, 19, 12, 1, 1, 0, 2, 4
1491505398448,-5, -7, -4, -2, -3, -1, -3, -2
1491505398455,2, 7, 3, 0, -1, -1, 5, 0
1491505398463,4, 7, 2, -1, -1, 1, 0, 0
1491505398478,0, 48, 5, 1, 0, 0, -1, 1
1491505398485,-2, -4, -3, 0, -1, -1, 0, 0
1491505398493,6, -15, -7, -1, 0, -3, 0, -2
1491505398508,2, 3, 4, -1, 2, -1, -1, 6
1491505398515,1, -9, 0, 0, -3, -2, -2, -5
1491505398523,-4, -10, -1, -1, -2, -2, 1, -2
1491505398538,-6, -12, -3, -2, -2, -2, -1, 1
1491505398545,-4, -5, -8, 0, -1, 0, 0, -2
1491505398552,-3, -2, -5, 0, 0, -1, -3, -4
1491505398568,-7, 4, 2, -3, -2, -1, 1, -2
1491505398575,5, -12, -11, -1, -1, 0, -4, -3
1491505398576,-6, -13, 4, -2, 1, 0, -1, -2
1491505398583,2, -9, 1, 0, -2, -2, -1, -2
1491505398598,1, -6, -2, -2, 1, 1, -1, 1
1491505398605,-3, -2, -2, -1, 0, 0, -3, -7
1491505398613,-1, -5, -4, -2, -2, 0, -3, -3
1491505398627,-1, 2, -2, 2, -1, -2, -1, -1
1491505398635,-2, -1, 1, -1, -1, -3, 0, -2
1491505398643,0, -2, -1, -1, 3, -2, -1, 0
1491505398658,1, 5, 0, -1, -2, 0, -1, 2
1491505398665,2, -11, 0, -1, -3, 0, -3, -3
1491505398672,-3, -11, -4, 0, 0, 0, 1, 1
1491505398688,3, -2, -2, -1, 0, 1, -2, 0
1491505398695,-6, -1, 0, -1, -1, -2, -2, 0
1491505398703,0, 1, -2, -3, -1, -3, 1, -1
1491505398732,0, -4, -2, -1, -3, -2, 1, -2
1491505398733,1, 11, 6, -1, -3, -1, 0, 0
1491505398734,-2, -10, -3, -2, -1, -1, -3, -4
1491505398748,0, 7, 2, 1, 0, 2, -1, -1
1491505398755,-3, -9, -5, 0, 0, 0, 2, -2
1491505398763,-5, -14, -1, -1, 0, -1, -1, -2
1491505398778,1, 1, 3, 1, 0, 0, -1, -4
1491505398786,3, -2, -3, -2, -3, -2, -1, -1
1491505398792,-5, -14, -1, -1, -1, -1, 1, -1
1491505398793,0, 1, -2, -2, -1, -2, -1, -1
1491505398807,0, 1, 0, 0, -2, -1, -1, 1
1491505398815,-6, 4, -2, -1, 0, -1, 1, -4
1491505398824,8, -8, 1, -1, -1, 1, 1, 2
1491505398825,-3, 0, -3, -1, -1, -5, -2, -3
1491505398838,1, 1, 1, 1, 1, -2, -1, 1
1491505398845,-1, -9, -7, -2, 0, -1, 1, 0
1491505398852,0, -10, -5, -2, -2, -1, -3, -4
1491505398867,3, 7, -3, 0, -3, -1, -1, -1
1491505398868,3, 3, 0, 0, -1, 2, -1, -2
1491505398875,0, 37, 0, -1, -2, -1, -1, -1
1491505398883,-2, -2, 0, 0, -2, -2, -2, -4
1491505398897,10, 15, 16, 2, 2, 1, 2, 3
1491505398912,-3, 4, 2, -3, -1, -1, 1, -2
1491505398913,-1, -8, -4, 0, -3, -1, -2, -1
1491505398934,-2, -4, -1, -1, -1, 0, -1, 1
1491505398935,2, -5, -9, -2, -2, -1, -2, 0
1491505398943,-3, -2, -4, 1, 0, -2, -4, -1
1491505398957,1, -2, -2, -2, -1, -4, -2, -2
1491505398958,-4, -4, 0, 0, 0, -1, 0, -1
1491505398965,10, 10, 0, -2, 0, -1, 3, 3
1491505398972,0, -4, 2, 0, -1, 0, -1, 2
1491505398987,-3, -5, 1, -1, -1, -1, -1, -5
1491505398995,-2, -6, -3, 0, 0, -2, -2, -2
1491505399003,-4, -15, -6, 0, 1, 0, 0, 1
1491505399018,6, 20, 5, 0, 0, -2, 2, 1
1491505399032,-2, -1, -2, 0, -2, -3, -1, -3
1491505399034,-2, -10, -4, -1, -3, -2, 0, -2
1491505399047,-9, -3, -2, 0, 1, 0, 0, -2
1491505399055,-4, -7, -2, -1, -1, 0, 0, -3
1491505399063,-2, -7, -5, -1, -1, 0, -4, -1
1491505399078,-3, -6, -2, -4, 0, -3, -2, 0
1491505399085,-1, 3, 1, -1, -1, 1, 0, -3
1491505399092,-4, -6, -3, -2, 0, -2, -2, -2
1491505399108,4, 17, 7, 0, 0, -1, -1, 3
1491505399115,-1, -21, -5, -2, -2, 1, -1, -1
1491505399123,1, -3, 0, 0, 0, -1, -1, -5
1491505399137,-3, -11, -4, -1, 1, -1, -1, -2
1491505399146,4, -11, -10, -2, -3, -1, -1, 2
1491505399152,-2, 7, 4, -1, 0, -2, 0, 1
1491505399167,-4, -12, -3, -1, -1, 0, -3, -3
1491505399175,3, -4, -2, 0, -1, -1, -1, 0
1491505399183,2, 7, 2, 0, -1, -1, 1, 0
1491505399198,-5, 2, 1, 2, 1, -2, -2, -1
1491505399207,2, 5, -1, 0, -2, -2, -1, -2
1491505399212,-1, 3, 0, 0, -2, 2, -1, -2
1491505399227,-2, 4, 7, 0, 0, -1, 1, 0
1491505399235,-2, -3, -2, -1, -1, 0, 0, -2
1491505399244,-3, 2, -2, -1, -1, -1, 0, -2
1491505399258,1, 10, 2, 0, 0, 1, -1, 1
1491505399265,4, 44, 7, 0, -2, 0, 0, -1
1491505399272,-3, -6, -7, -3, -3, -5, -3, 0
1491505399287,1, -7, -4, -2, -1, -3, -1, 1
1491505399295,0, -2, -2, 0, -1, -2, -1, -2
1491505399303,-1, -12, -6, -1, 0, 0, -2, -2
1491505399318,1, -14, -2, -1, 0, 1, -1, 0
1491505399325,0, -1, 2, -1, -2, 1, -1, -1
1491505399339,2, 6, 3, -1, -2, -1, -2, -4
1491505399348,-3, -5, -3, 0, 0, -2, 0, 1
1491505399355,10, -1, -3, 0, -1, 0, 2, 2
1491505399370,2, -7, 1, 1, 0, 0, 2, 1
1491505399379,-6, 4, 1, 0, -1, 2, -2, -2
1491505399385,-2, -5, -2, -1, 0, -1, -1, 1
1491505399399,2, -8, -4, -1, -1, -2, 1, -1
1491505399400,-4, -3, -3, -2, -2, 0, -1, 0
1491505399407,-1, -4, -1, -1, -1, -1, 0, -2
1491505399415,-1, 3, 2, 0, 0, -2, -1, -2
1491505399430,-1, -4, -3, 0, 1, -1, -2, -2
1491505399437,3, 1, 0, -1, 1, 0, 0, 0
1491505399445,-3, -2, 0, -1, -2, -1, -2, -2
1491505399459,-2, 12, -1, 0, -1, 0, 0, 1
1491505399467,7, 4, -1, -3, 0, -1, -2, -3
1491505399475,-4, 0, 0, -2, 0, -2, 1, -3
1491505399490,-2, -3, -3, -2, -3, -1, -1, 0
1491505399498,-3, -19, -5, -2, -1, -1, -1, -3
1491505399505,-5, -11, -2, -1, 0, 0, 0, -2
1491505399519,4, 11, 2, 1, -1, -2, -1, 1
1491505399528,3, 5, 1, 1, -1, 0, -2, 0
1491505399535,1, -5, -1, 0, -2, 0, -3, -4
1491505399550,-3, 7, 1, 0, 0, 0, 0, 0
1491505399557,-4, -6, -2, -2, 0, -1, -1, -1
1491505399565,-4, 11, 8, -1, -1, -1, -2, 0
1491505399579,-4, -3, -3, 0, -1, -1, -1, -5
1491505399587,-2, -14, -4, -2, 1, 0, -1, -3
1491505399595,-1, 8, -2, -3, -2, -1, -1, 0
1491505399610,-4, 3, 4, 0, -2, -3, -2, -2
1491505399618,-1, -8, -4, -1, 0, 0, -1, 0
1491505399625,-5, -1, -2, 1, -2, -2, -1, 0
1491505399639,-2, 1, 2, 0, 2, -1, -1, 1
1491505399647,-2, -7, -3, -2, -1, 0, -1, -3
1491505399655,1, 7, 4, 0, 0, 0, -2, 0
1491505399670,11, -2, -4, -2, -1, -1, 0, 2
1491505399677,-6, -4, -2, -1, -1, 0, 1, -1
1491505399678,1, 9, 5, 2, -2, -1, 2, 0
1491505399685,-5, -5, -4, -1, -1, 1, -1, -2
1491505399699,-2, -4, -5, -1, 0, 0, 1, 0
1491505399708,-2, 1, -2, -1, -1, 0, -1, -3
1491505399715,-1, 27, 1, -2, -2, -2, 0, 1
1491505399730,1, 3, 3, -1, 1, 0, 0, -3
1491505399737,-1, -13, -3, -2, -1, -1, -1, -2
1491505399746,2, 6, -3, -2, -3, -1, -1, 1
1491505399759,2, -1, -2, 0, -1, 0, -1, -1
1491505399768,-1, -11, -4, -2, 0, -1, 1, -2
1491505399775,9, -3, -2, -1, 0, -1, 0, -1
1491505399790,-4, -2, -1, -1, -1, -1, 0, -2
1491505399797,-7, -11, -4, -2, 0, 0, -2, -2
1491505399805,-5, -2, -2, 0, 0, -1, 0, 0
1491505399821,-1, -5, -1, -1, -2, -1, 0, -1
1491505399828,-3, 8, -2, -1, -1, -1, 0, 0
1491505399835,-4, -11, -5, -2, 0, 0, 0, -3
1491505399850,1, 0, 0, 0, -2, 0, -2, 0
1491505399857,1, 12, 1, 1, 1, 0, 0, 1
1491505399865,0, -2, 1, 1, 1, 0, 0, 2
1491505399879,-10, -6, 2, 0, -3, -1, 0, -1
1491505399888,-2, -5, -2, 0, -1, 0, 0, 3
1491505399895,0, -8, 0, -1, -1, -3, -1, -1
1491505399910,1, 4, -4, -4, -1, -1, -1, 0
1491505399918,-4, -18, -5, -2, 0, -1, -4, -2
1491505399925,1, -8, -4, -1, 0, -2, -1, -3
1491505399940,2, 4, -1, 0, 1, 0, -1, -4
1491505399948,1, 3, 2, -1, 1, 0, 0, -2
1491505399955,-3, 0, 2, -1, 0, -2, -2, -2
1491505399956,0, 1, 1, -1, -2, -2, -1, -2
1491505399970,1, 8, 0, 2, -2, 1, 1, -4
1491505399977,5, 1, 1, -1, 0, 0, -1, 0
1491505399987,-3, -7, 0, -1, -2, -2, 0, -2
1491505400000,-8, 11, 4, 0, 1, -1, 1, -3
1491505400008,1, -10, -2, -3, -2, -2, -3, -4
1491505400015,2, -6, -6, -1, -3, -1, 0, -1
1491505400030,-1, 12, 6, 2, 1, -1, -1, -2
1491505400031,-2, -4, -1, -1, 0, 1, -1, -2
1491505400038,0, -6, -3, -3, -2, -2, -2, -1
1491505400045,-1, -2, -4, -4, -1, -2, -1, 0
1491505400046,0, 6, 3, -1, 1, -1, -4, -2
1491505400060,3, -1, 1, -1, -1, 0, -2, 1
1491505400068,-2, -11, -3, -1, -1, -3, -3, -2
1491505400075,-1, 1, -1, 0, 0, -2, -2, -3
1491505400090,-3, 3, 1, 0, -2, -2, 0, 0
1491505400098,-5, -7, -3, -3, -2, -1, 0, 1
1491505400105,1, 20, 8, -1, 0, -1, 0, -1
1491505400120,-1, 8, 3, 0, -1, -3, 0, 0
1491505400128,-4, -2, -4, -1, -3, -1, -3, 0
1491505400135,3, 4, -3, 0, 1, 0, 0, 1
1491505400150,-2, -15, -5, -1, -1, -2, 0, 0
1491505400158,0, -3, -3, -1, -1, 0, -1, -2
1491505400166,-2, 3, 3, 0, -1, 0, 0, -2
1491505400180,-7, -9, -2, -2, -1, -1, 1, 0
1491505400195,0, -3, 0, 0, 1, 0, 1, 0
1491505400196,-2, -2, -2, -1, 0, 0, -1, -2
1491505400211,4, 5, 2, 0, -1, -3, -2, -5
1491505400217,-2, -7, -1, -1, -1, -1, -1, 0
1491505400225,2, 1, 0, 0, 1, 0, 3, 2
1491505400243,1, 7, 1, -2, -3, -1, -2, -2
1491505400249,-1, 6, 3, 0, -2, 3, -1, 2
1491505400262,1, -4, -1, 1, 0, 1, 1, 0
1491505400270,-2, -6, -6, -1, -1, -2, -2, -5
1491505400277,2, -1, -1, -1, -1, -2, 0, -1
1491505400293,0, 1, -2, 0, 1, -1, -3, -3
1491505400300,-3, -3, -3, -2, -1, -3, -1, -2
1491505400308,-4, -6, -4, -1, -2, -1, 0, -1
1491505400323,-1, -4, -1, -1, 0, -1, -1, -1
1491505400330,-1, -4, -4, 0, -2, -1, -1, 0
1491505400338,0, 0, 1, -1, 0, 1, -1, -2
1491505400352,0, -1, -3, -1, 0, 0, 1, 4
1491505400360,1, -1, 1, -1, -3, -1, -4, -5
1491505400368,-1, -1, -3, -2, -1, -2, 1, -1
1491505400382,-1, -3, 0, -1, 0, -3, 2, -1
1491505400391,-3, -1, -2, -2, -3, 0, 0, -2
1491505400397,1, 8, 1, -1, 0, -1, -1, 1
1491505400412,7, 0, -1, 0, 1, -1, -1, -3
1491505400420,-4, 3, -2, -2, -1, -3, -1, -1
1491505400428,-2, -4, -2, -1, -2, -2, -1, -1
1491505400442,3, 12, 4, -1, -3, 0, -2, -2
1491505400450,-5, -1, 1, 0, -1, 0, 0, -3
1491505400457,-1, 4, -1, 0, 1, 0, 0, 3
1491505400472,2, 3, 1, -1, 0, -3, -3, -3
1491505400480,0, -7, 1, -2, -3, 0, 1, 0
1491505400488,1, 4, 4, -1, 1, -2, 0, 1
1491505400502,0, 1, 2, -1, -1, 0, 1, -2
1491505400510,-2, -3, -4, -2, 1, -1, -1, -3
1491505400517,0, -7, -4, 0, 1, 1, 1, -1
1491505400533,-5, -2, -1, 0, 0, 1, -1, -4
1491505400540,2, -9, -5, 0, -2, 0, -2, -3
1491505400548,1, -1, 1, 0, -2, 0, 0, -1
1491505400562,-2, -7, -5, -2, -2, 0, -2, 0
1491505400570,-1, 2, -2, -1, 0, -4, -1, -2
1491505400578,-2, 1, 1, -1, 1, -1, 1, -1
1491505400593,-2, -1, -1, 1, -1, 0, -1, 4
1491505400600,1, 3, 3, 1, -1, 1, -1, -5
1491505400601,0, 12, 9, 0, 0, 0, -1, -1
1491505400608,4, -4, -3, -1, -1, -2, 0, -3
1491505400622,5, 0, -3, 0, -1, -1, -1, 0
1491505400630,-2, 22, 9, -2, -1, -1, -3, -2
1491505400637,7, -17, -1, 0, 0, -1, 0, -1
1491505400652,-3, -17, -8, -2, -2, 1, 0, 2
1491505400661,-7, -5, -1, -1, -1, 0, -2, -1
1491505400668,-5, 3, 2, -1, 0, -1, 0, -2
1491505400682,-5, -4, -7, -3, 0, 0, -1, 0
1491505400690,1, -1, -2, -2, -2, 0, -1, -2
1491505400697,-2, 0, -3, -1, -1, -1, 0, -4
1491505400712,0, -8, -4, 1, -2, -3, -1, -2
1491505400720,-2, 0, -3, 0, -2, -2, -1, -2
1491505400728,2, -2, -1, -1, -2, 2, -1, 0
1491505400742,0, 7, 3, 1, -2, -1, -2, 1
1491505400750,-6, -8, -3, -2, -2, -3, -3, -1
1491505400758,-3, 4, 1, -1, -1, 0, -1, 0
1491505400772,-2, -1, -2, 0, -1, 0, 2, -1
1491505400780,-1, 16, 2, -1, -2, -2, -2, -2
1491505400788,1, 5, 7, 2, 2, -1, -2, 2
1491505400802,-1, -7, -2, 2, -1, -1, 1, -2
1491505400810,-2, -5, -4, 0, 1, 0, 0, 2
1491505400818,-2, -4, -1, -1, 0, 0, -2, -1
1491505400833,2, -5, 0, -2, 0, -1, -1, 2
1491505400841,-2, -3, -3, -2, -2, -1, -2, -2
1491505400848,-1, -6, -6, -1, -2, 0, -2, -3
1491505400862,7, 14, 9, 2, 1, -1, 0, 0
1491505400870,-3, -1, -1, -2, -2, -1, -2, -1
1491505400877,5, -7, -3, -1, -1, 0, 0, 0
1491505400892,0, 3, 4, 2, 0, 1, 0, -2
1491505400900,-5, -5, -3, -2, -1, -2, -1, -3
1491505400908,2, 0, -3, -2, 2, -2, -2, -1
1491505400922,-3, -8, -4, 0, -3, 1, 1, -2
1491505400930,-3, -2, -1, 0, -2, -1, 0, -5
1491505400937,-2, -9, -3, -1, -1, -3, -2, -4
1491505400952,1, 4, 4, -1, -2, 0, 0, 2
1491505400960,-1, -3, -4, -1, -1, 1, -1, -1
1491505400968,-7, -9, -3, -2, -1, -1, -1, -2
1491505400981,-3, 3, 1, -1, 0, -2, -1, -1
1491505400990,3, 2, -1, -3, -1, -2, 0, -4
1491505400997,1, -8, -4, -2, -1, 0, -2, -1
1491505401012,2, -4, -2, -2, -1, -2, -1, 1
1491505401020,2, -15, -6, -1, 1, 1, -1, -2
1491505401028,-2, -2, -3, -1, -1, -1, -1, 1
1491505401042,-4, 1, -1, -2, 0, -2, -1, 2
1491505401050,0, 3, -2, 0, 0, -1, -1, -3
1491505401057,-2, 4, 3, 0, -1, 0, -2, -3
1491505401072,-2, 1, -1, 0, -2, -3, -1, -2
1491505401080,12, 13, 5, -2, 0, -1, 0, 1
1491505401088,-1, 0, -3, -2, -1, -1, -1, -1
1491505401102,-5, 18, 3, 0, -1, -1, 0, 1
1491505401110,2, 1, 0, -1, -1, 2, -1, -1
1491505401117,-5, -2, -2, -2, -1, 0, 1, -1
1491505401132,-2, 1, -1, 0, -2, -2, 0, 0
1491505401140,-2, -8, -9, 0, -1, -4, -2, -2
1491505401148,0, -10, -5, -1, 2, -1, -1, -1
1491505401162,-2, -10, -5, -2, -1, 0, 0, 0
1491505401170,-2, 7, 4, 0, -1, 1, -1, -1
1491505401177,-3, 2, 1, 0, -1, 0, -1, 0
1491505401192,-1, 1, 2, 2, -1, -1, 0, 1
1491505401200,-3, -5, 0, 0, -1, 0, 0, -1
1491505401215,-1, -1, 1, -1, 0, 0, 3, -1
1491505401222,7, -3, -1, -1, 0, -1, -2, 0
1491505401230,-3, -7, -7, -2, -2, -1, -2, -3
1491505401244,-4, -3, -1, -3, 0, -2, -2, 0
1491505401252,1, -1, -1, -2, -2, -2, -1, -3
1491505401260,-1, -3, 0, 0, -1, -2, -2, -1
1491505401275,0, 1, 0, -1, -2, -2, 1, 0
1491505401282,-3, -1, -1, -1, -1, -2, -1, -3
1491505401290,-1, 3, 3, 0, 0, 1, -2, -1
1491505401304,0, 2, 1, -1, 0, 0, -2, -3
1491505401312,4, 2, -1, -1, -2, -2, 0, 1
1491505401320,-2, 2, 1, -1, -3, 1, -1, -1
1491505401335,-3, -2, -5, 0, -1, -1, -2, -3
1491505401342,-2, -4, -3, -1, 1, 0, 0, -2
1491505401350,0, -7, -3, -1, 0, -1, -2, 0
1491505401364,-1, 8, 0, 0, 0, -1, -1, -1
1491505401372,0, 1, -1, -1, -1, 0, 1, 2
1491505401382,-2, -3, -1, -2, -1, 0, 0, -1
1491505401395,-1, 2, 1, -1, 0, -1, -3, 1
1491505401401,2, -4, -2, 0, 0, -3, -1, -1
1491505401402,1, 6, 1, 1, 0, -2, 0, -4
1491505401410,1, -2, 0, 0, -1, -2, -3, -4
1491505401425,3, 4, 0, 1, 0, 1, 2, -1
1491505401432,-4, -5, -2, -2, -1, 0, 0, 2
1491505401440,-3, -8, -2, 0, -1, -1, -1, -2
1491505401455,2, 5, 2, -1, -1, -2, 1, 1
1491505401469,-2, -2, -1, -2, -1, -1, -2, 0
1491505401470,1, -1, 1, -1, -1, -1, -1, 0
1491505401471,-2, 11, 9, 3, 0, -2, -1, -1
1491505401484,-4, -6, -3, -1, -1, -1, -3, -1
1491505401492,3, -2, -2, -1, -2, 0, 0, -2
1491505401500,1, -2, 0, -2, -1, -2, 0, -1
1491505401515,-2, -5, -3, -2, 0, -1, -1, -3
1491505401521,-1, 8, 4, -1, -3, 1, 1, -1
1491505401522,0, -4, -4, -2, -2, 0, -1, 1
1491505401530,-1, -7, -4, 0, -2, -1, -1, -2
1491505401544,-3, -4, -2, -2, -2, -2, -1, -1
1491505401552,-1, -5, -2, 0, -1, 1, -2, -2
1491505401560,-1, -2, -1, -1, -1, 0, 0, 1
1491505401575,0, 2, -1, 1, 1, 0, -2, 0
1491505401582,-2, -2, -2, 0, 1, 0, -1, -3
1491505401590,0, 9, 3, -1, -1, 0, 0, -1
1491505401604,9, 5, 1, 0, 0, -1, 1, 1
1491505401612,-3, -12, -5, -2, 0, 1, 0, 0
1491505401620,-1, 0, 1, -1, -1, -1, -1, 0
1491505401635,4, -2, -4, 0, -1, -1, 0, -2
1491505401642,0, -1, -1, -1, -1, 0, 0, -3
1491505401650,-2, 0, 0, 0, -1, -1, -2, -4
1491505401664,2, 4, 6, 1, -3, -1, -1, 0
1491505401672,-2, 0, 0, 0, -1, -1, -2, -2
1491505401680,-3, -4, -2, 1, -1, -3, 0, -1
1491505401695,0, -5, 0, -1, -1, -2, -2, -1
1491505401701,-4, -2, -2, -2, -2, -1, -2, -1
1491505401710,-1, 1, 0, -1, 0, 2, 2, 3
1491505401724,-1, -1, 1, 1, 2, 0, -1, -3
1491505401732,-3, -3, -3, -1, 0, -3, 0, 2
1491505401740,-7, -5, -5, -1, -1, 0, -3, -3
1491505401755,1, -3, -2, 0, 1, 0, 1, -1
1491505401762,-1, -7, -3, -2, 0, -1, 1, -2
1491505401770,2, 7, 3, -2, -1, 0, 0, 0
1491505401784,0, -4, -2, -1, -2, -2, -1, -1
1491505401793,-1, -3, -3, 0, -1, -3, 1, 0
1491505401800,1, 14, 7, 1, -1, 1, 0, 0
1491505401815,-2, 0, -1, -2, -2, 0, -1, -2
1491505401821,0, -2, -2, -1, -2, 0, -1, 0
1491505401830,-2, -5, -5, -2, -1, 2, -1, -2
1491505401845,9, -1, -2, -1, -2, -1, -2, -1
1491505401852,-1, 2, 0, -1, -1, -2, -2, -5
1491505401860,-3, 0, -2, -2, -1, -1, -1, -1
1491505401875,-2, -3, -1, -1, 0, 0, -2, -5
1491505401881,-1, -3, -2, -2, -1, -1, -2, -1
1491505401882,-1, 1, 0, -1, -2, -1, -1, -1
1491505401890,-3, -12, -1, 0, -1, -1, 0, -1
1491505401904,-4, -6, -2, 0, 0, -1, -1, 0
1491505401912,-1, 3, 1, 2, -3, -4, -1, -1
1491505401920,0, -4, -5, -1, -1, -2, 1, 0
1491505401935,0, 6, 2, -1, -1, 0, 1, 3
1491505401941,-4, -2, -3, 1, 0, 0, -1, -3
1491505401950,1, 0, -1, -1, -1, 0, -1, 2
1491505401964,-7, -2, 1, -1, 0, 0, -2, -1
1491505401972,0, 3, 2, 0, -2, -1, -1, 0
1491505401980,0, 9, 6, 1, 0, -3, -2, -1
1491505401995,0, -2, -2, -2, -1, -2, -1, 0
1491505402001,-1, -1, 1, -1, -1, -2, -1, -2
1491505402002,0, 1, -2, -3, 1, 0, 1, 0
1491505402010,-2, -1, -5, -2, 0, 1, 0, -3
1491505402024,2, -2, -1, -1, 0, 1, -1, 0
1491505402032,-3, -7, -3, 1, -1, 0, -1, -2
1491505402040,0, -1, -2, -3, -1, -2, 0, -2
1491505402055,-8, 9, 6, 0, 0, -1, 0, -3
1491505402062,-3, -1, -3, 0, 0, -1, 0, -2
1491505402070,-1, -4, -3, -2, -1, -1, -2, -2
1491505402084,1, 1, -3, -2, 0, 1, -1, 1
1491505402092,1, -2, -2, 0, 2, 1, -1, -1
1491505402100,1, -1, -2, -1, 0, 0, 1, -2
1491505402115,1, -4, -1, -2, -3, -2, 1, -2
1491505402122,-2, -5, -1, 0, -2, -2, -3, -1
1491505402138,5, 7, 2, 0, -1, -2, -1, 2
1491505402144,-3, -2, 0, 1, -2, 0, -2, -1
1491505402152,-1, -3, -1, -1, 0, 0, -1, -1
1491505402166,6, 14, 6, 1, 1, 1, -1, 2
1491505402175,-5, -3, -5, -4, -1, -1, 0, -2
1491505402181,-2, -2, 0, -1, -1, -2, 1, 1
1491505402182,-3, -5, -2, -4, -2, -3, -2, -4
1491505402197,-4, -3, -1, 0, 1, 0, 0, -2
1491505402198,4, 2, 2, 0, -1, 1, 0, 2
1491505402204,-1, 0, -2, 0, -2, -1, 0, -1
1491505402213,1, 14, 11, 1, 0, 0, -2, -2
1491505402214,2, -5, -3, 0, 0, 0, -3, 0
1491505402227,-2, -4, -5, -2, -1, -1, -2, -2
1491505402235,-2, 2, 0, -1, 0, -3, -1, -1
1491505402241,2, -3, -2, -1, 1, 0, -2, 1
1491505402242,-1, -2, 1, 1, -1, 0, 0, -1
1491505402258,-2, -5, -3, -1, -1, 0, -2, -2
1491505402265,-7, -8, -4, -3, -1, 0, 1, -2
1491505402272,4, 0, 1, 0, -1, -1, 0, -1
1491505402287,-4, -6, -1, 0, 1, -2, -3, -2
1491505402296,-1, -11, -3, -1, 0, -2, -1, -2
1491505402302,1, 0, -2, -1, -1, -2, 0, -2
1491505402317,2, 2, 3, -2, 0, 0, 1, 1
1491505402318,-1, 1, 1, 0, -3, 0, 0, -2
1491505402324,3, -3, -2, 0, -2, 0, 1, 1
1491505402332,-1, -2, -5, -1, 0, 0, 0, 2
1491505402349,1, 2, 1, -1, -1, 0, -1, -1
1491505402358,0, 5, 2, -2, -3, -2, -1, 0
1491505402363,-2, -3, 1, -1, -1, 0, 1, -1
1491505402378,4, -4, -4, -2, 0, 0, 0, -4
1491505402385,-2, 1, 0, -3, -2, -1, -2, -2
1491505402393,3, 4, 4, -1, 0, -1, 0, -1
1491505402408,0, 3, 0, -1, 0, -1, 1, 1
1491505402415,-2, 2, 3, 2, -2, -1, -2, -1
1491505402423,-1, 0, -2, 1, -1, -2, 1, -1
1491505402437,-2, 1, -2, -3, -2, -2, -2, -5
1491505402445,0, -2, 0, -1, -1, 1, -2, 1
1491505402452,-9, 5, 0, 1, 0, 0, -1, -1
1491505402468,1, -4, -2, 0, -1, 0, -4, 1
1491505402475,-5, -5, -1, 0, 0, 0, -2, -5
1491505402483,0, 3, 1, 0, 0, -1, -1, -3
1491505402497,4, -4, -3, -1, 1, 0, -1, 2
1491505402506,-6, -4, -1, -1, 0, 1, -1, -2
1491505402507,2, -2, -1, 0, -1, 0, -1, 1
1491505402512,1, 2, 1, 0, -1, -1, 1, 0
1491505402528,-2, 5, 5, -1, 0, -1, -2, -1
1491505402535,2, 0, -2, -2, 0, 0, -1, -2
1491505402550,-1, 1, 1, -3, -2, -1, 0, -3
1491505402558,-10, -12, -5, -2, -1, -1, -2, -3
1491505402565,0, 9, 1, 1, -1, 0, 0, 2
1491505402572,-1, -1, -2, -1, -3, 0, -3, -2
1491505402590,-2, -2, 0, -1, 1, 0, 0, -1
1491505402595,0, 8, 0, -3, -2, -3, 0, 0
1491505402610,-2, -2, -2, -1, -1, 0, -1, -1
1491505402617,0, -3, -2, -2, 0, -1, -3, -2
1491505402625,-4, -6, -5, -2, 0, -2, -2, -1
1491505402632,4, 3, 0, -1, -3, -1, 0, 1
1491505402648,-3, -7, -6, -2, -1, -1, -1, 1
1491505402655,-4, -5, -7, -2, -1, -2, 0, -3
1491505402670,-1, -5, -5, -1, -1, -2, -2, -2
1491505402677,3, -2, -2, 0, -1, 1, 1, 2
1491505402686,1, 3, 2, 1, -2, -1, 0, 2
1491505402692,2, 0, 1, 0, -1, -2, 1, 2
1491505402708,1, 1, 0, -1, 2, 0, 0, 0
1491505402715,0, 3, 2, 0, 0, -2, 1, 0
1491505402730,-2, 1, 0, 0, -1, -1, -3, -5
1491505402744,-2, -3, 1, 0, 1, 0, 0, 0
1491505402746,8, 1, 0, 0, 0, 0, 1, -2
1491505402760,1, 4, 0, -2, -2, -2, -1, -1
1491505402768,-4, -3, -3, -3, -2, -2, -1, 0
1491505402775,-3, -2, 0, -1, 0, -2, -1, -1
1491505402790,2, 0, -1, 0, 0, -1, -1, -2
1491505402791,0, -1, 0, -2, -1, 1, 0, -4
1491505402797,-3, -6, -3, -2, -1, 0, 0, 0
1491505402805,-4, -4, 0, 0, -1, 1, -1, -2
1491505402812,1, 2, 0, 0, 0, 0, 0, 1
1491505402828,5, 1, -1, 1, -2, -2, 0, -1
1491505402835,-4, -3, 0, -1, -2, -1, -1, -4
1491505402851,-4, -4, -1, -2, -2, 0, -1, -1
1491505402857,-3, -1, -1, 1, 1, 0, 0, 1
1491505402858,2, 0, -2, 0, 0, -1, 0, 0
1491505402865,-5, 2, 0, 1, 0, -3, -2, 0
1491505402872,-1, -5, -2, -1, 0, 1, -3, -3
1491505402888,-1, -2, -3, -1, 1, -1, -1, 1
1491505402895,-1, -5, -4, -2, -2, -1, 0, -3
1491505402910,-1, -1, -1, -2, -1, -1, -3, -7
1491505402917,-2, -4, -1, 0, 0, 1, 0, 1
1491505402927,-4, 0, 1, 0, -2, -2, 2, 1
1491505402932,-2, 2, 1, -1, -1, -1, -4, -3
1491505402948,-1, -2, 0, -2, -1, 1, -1, -1
1491505402955,2, 3, 3, -1, 1, -1, -1, 0
1491505402970,-2, -2, -3, -2, -1, -1, -1, -4
1491505402978,1, 3, 0, 0, -1, 1, -1, 0
1491505402985,2, 2, 0, -1, -2, 0, 0, 1
1491505402992,1, -8, 1, 1, -1, 0, 0, 1
1491505403009,-1, -4, -3, 1, -1, -1, -2, -3
1491505403010,2, -2, -2, -2, 0, -1, -1, 1
1491505403015,-5, -4, -5, -2, 0, -2, -1, -4
1491505403030,5, -3, 0, 0, -2, 0, 0, 0
1491505403037,8, 5, 1, -1, -1, 1, 0, 2
1491505403045,-1, -1, 0, 0, 0, 0, -1, 0
1491505403060,-2, 0, -1, -1, -2, -1, -1, 0
1491505403068,0, 3, 2, 1, 0, 2, -1, -2
1491505403075,-2, 1, 0, -1, 0, -1, -2, -3
1491505403090,-1, 0, -4, -2, 0, 0, -3, -2
1491505403097,-2, 1, 0, -1, 0, 0, -2, 0
1491505403106,-2, -4, -3, -1, -1, -1, -1, -1
1491505403120,6, 2, -1, -2, -1, -1, 0, 2
1491505403128,-3, 1, -1, -1, -1, 0, -1, -1
1491505403136,-2, -2, -1, 0, 0, 0, -2, 0
1491505403150,-1, 6, 10, 0, 1, -2, 0, 0
1491505403157,-7, -2, 0, 0, 0, 3, 0, -5
1491505403166,0, 0, -2, 1, -1, -2, 0, -2
1491505403180,-1, -2, -3, 1, 0, -4, -1, -1
1491505403188,2, -1, -3, -1, -1, 1, 0, -1
1491505403195,2, -11, -4, -1, -2, -2, 1, 0
1491505403210,-3, 0, 1, -1, 0, -1, 0, 1
1491505403218,-3, 1, -1, -1, 0, -2, 0, -4
1491505403225,2, -2, -2, -3, -1, -1, -1, -3
1491505403240,-8, 0, 0, -1, 0, -2, 0, -3
1491505403248,1, -1, -2, -2, -2, -4, -1, -1
1491505403254,1, 10, 10, 0, 0, -1, -1, 1
1491505403271,-2, -4, -1, -1, -1, 0, -2, 1
1491505403277,-2, -1, -4, -1, 1, -1, 0, -2
1491505403285,-2, -1, 1, 1, -1, 0, 1, -2
1491505403299,2, -1, -2, 0, 0, 0, 0, 0
1491505403300,1, 2, 0, 0, 0, 1, 0, -2
1491505403308,0, -3, -2, -1, -1, -1, -1, -2
1491505403315,-1, -3, -3, -2, -2, 0, -1, -1
1491505403329,-1, 1, -3, 0, 1, -2, 0, 0
1491505403330,-3, -5, -2, -3, 0, 0, 0, -2
1491505403337,3, -1, 0, -1, -1, 0, 0, -1
1491505403347,5, 2, 3, 0, 0, 1, -2, -1
1491505403360,0, -5, -4, -2, 0, -2, -1, -2
1491505403368,-4, -6, -5, -1, -1, -2, -2, -2
1491505403374,0, 1, 0, 1, 0, -2, -2, -3
1491505403390,0, 2, 2, -1, 0, 0, 2, 0
1491505403397,-3, -1, -1, -2, 1, 1, -1, -2
1491505403406,-1, 0, 0, 0, -2, 0, -4, -3
1491505403420,0, -4, -4, -1, -3, 0, -1, 1
1491505403428,1, 2, 2, -1, 0, -1, -2, -3
1491505403429,-1, 0, -4, -2, 0, -3, -2, -2
1491505403435,-2, -7, -4, -1, -1, -1, -1, -1
1491505403449,0, 2, 1, -2, -1, -1, 0, 3
1491505403450,-1, -2, -1, -1, -1, 0, 0, 0
1491505403457,8, 2, -2, 0, -1, 0, -1, -1
1491505403465,-3, 9, 9, 1, -1, 0, 0, 1
1491505403480,1, -4, -2, 1, -1, -1, -1, 0
1491505403481,-3, 1, 2, 0, -2, -2, -1, 1
1491505403488,-2, -4, -3, -1, -1, -1, -1, 1
1491505403494,-4, -1, 0, -1, -1, -1, 0, -3
1491505403510,-3, -3, -5, 1, -1, -1, 0, 0
1491505403517,0, 0, 1, 0, 1, -1, -1, -2
1491505403525,0, 5, 5, 1, 0, -2, 0, 1
1491505403526,0, 9, 2, 0, 0, -1, -2, 0
1491505403540,-2, 2, 1, -2, -1, 0, 0, 0
1491505403548,-6, -4, -4, -1, -1, 0, -1, -2
1491505403555,-7, -1, -1, 0, -1, 0, 0, -1
1491505403570,3, -4, -1, -1, -1, 0, 0, -2
1491505403577,-3, -7, -5, -1, -1, -3, -1, -3
1491505403585,0, -9, -6, -1, -2, -3, 0, -2
1491505403600,3, 1, 0, -1, 0, 0, 0, -1
1491505403608,-1, -8, -5, -3, -2, 1, -3, -5
1491505403615,-1, -1, -2, -2, 0, -1, -2, -1
1491505403632,-1, 1, -1, 1, 0, -1, 1, -1
1491505403637,17, 6, 1, 0, -1, -1, -2, 0
1491505403645,3, 3, 1, -1, 0, 0, -2, -2
1491505403660,-4, -1, 1, -1, 1, -3, -2, 0
1491505403668,0, -2, 0, -1, -2, -1, 0, -2
1491505403675,-5, -4, -3, -1, -2, 2, -1, -2
1491505403692,0, 4, 4, -1, -1, 1, -1, -1
1491505403699,-1, -2, 0, -2, -1, -1, 0, -2
1491505403705,-1, -1, 1, 0, 0, 0, 0, 1
1491505403720,-1, -6, -1, -1, 0, 0, -1, 1
1491505403728,-7, -9, -3, 0, -2, 1, -1, -1
1491505403735,-6, -2, 1, 0, -4, -1, -3, -4
1491505403750,1, 3, 1, 0, 1, -3, 0, -2
1491505403757,-2, 1, -2, 0, -1, 0, -2, -2
1491505403766,1, 3, 1, -2, -2, -1, 1, 1
1491505403780,-1, 1, -1, -2, -1, -1, -2, -1
1491505403788,1, 1, 0, -1, 0, 1, 0, 1
1491505403795,-2, 6, 2, -2, 0, -3, -2, -3
1491505403810,0, -1, -3, 1, -1, -2, 0, -1
1491505403817,-1, -3, -3, 1, 0, 1, -1, 0
1491505403825,6, 2, 1, 0, -3, 1, -2, -5
1491505403840,-3, -2, 0, 0, -1, -1, 0, 3
1491505403849,0, -1, -3, -2, -1, 0, -2, -1
1491505403855,4, 0, -1, -1, -2, -1, -1, -1
1491505403870,-4, -5, -4, -3, 1, -3, -3, -4
1491505403877,-1, -3, 1, -2, 1, 1, 0, 1
1491505403885,2, 9, 3, -1, 0, -1, 0, 1
1491505403901,-2, 2, 0, -2, -2, -1, 0, -1
1491505403908,-3, -2, -1, -2, -3, -2, -2, -1
1491505403914,1, 2, 1, 0, -1, -2, 0, 1
1491505403915,-1, -3, -5, -3, -1, 1, 0, -1
1491505403933,-9, -7, -4, -2, 2, -1, -2, 0
1491505403937,7, -2, 0, 0, 1, -1, -1, 2
1491505403938,0, 11, 4, 1, 1, 0, -1, -2
1491505403947,-2, -5, -3, -1, -1, 1, 1, -1
1491505403960,0, -3, -2, 0, 0, 0, 0, 1
1491505403969,-2, 0, -1, 0, -2, 0, 0, -2
1491505403975,0, 8, 8, 0, -2, -3, 0, 1
1491505403990,2, -10, -3, 0, -3, -1, -1, 2
1491505403997,1, 2, 4, 1, -1, 0, -2, -4
1491505404012,8, 6, 0, -1, -1, -2, -2, 1
1491505404027,0, -3, -2, 0, -2, 0, 0, 0
1491505404028,-4, -4, -3, 0, 0, 0, -1, 0
1491505404042,-2, -6, -6, -2, -1, -2, -1, -2
1491505404052,0, 1, -1, -2, 0, 1, 0, 0
1491505404058,-2, -3, -2, 0, -1, -1, -2, -2
1491505404072,-1, 2, 2, -1, 0, 0, 0, -3
1491505404080,-1, -15, -8, -1, -2, -2, -2, -2
1491505404088,-2, -3, -2, -2, 0, -1, -1, -4
1491505404102,-1, -1, -4, -4, -1, -1, 1, 1
1491505404113,-3, 3, -1, 0, -3, -2, -2, -3
1491505404117,0, 2, 2, -2, 1, 0, 3, 0
1491505404132,-2, -2, -2, -1, -2, -1, -1, -2
1491505404140,4, 0, -1, 1, -2, 0, -1, -2
1491505404148,-2, -4, -2, 0, 0, -3, -2, -2
1491505404162,-4, -7, -4, -1, -1, -2, -2, -3
1491505404172,0, 1, 1, -3, -2, 0, -1, 0
1491505404177,-2, -6, -5, 0, 0, -1, -2, -2
1491505404194,-1, -3, -2, -2, -2, -2, -1, 0
1491505404200,-1, 0, 1, 0, -1, -2, 0, 0
1491505404209,-1, 4, 3, -2, 0, 0, -2, -4
1491505404222,0, 4, 2, 1, -2, -2, 0, 0
1491505404232,2, 1, 1, 1, -3, 0, -1, 1
1491505404239,-6, 7, 3, 0, 0, 0, -2, -3
1491505404252,-3, -1, -1, 1, 0, 0, 1, -2
1491505404259,-5, 2, 1, 1, -2, -2, -3, -1
1491505404260,6, 0, 0, -2, -1, 1, -1, -2
1491505404271,1, -2, 1, 0, 0, -1, -1, -2
1491505404282,-4, -3, -3, -1, 0, -1, 0, 0
1491505404291,4, 14, 9, 2, -3, 1, 1, 2
1491505404297,2, -2, -1, -2, 0, 0, -1, 0
1491505404312,-1, -2, -4, -1, 0, 0, 0, -1
1491505404320,-4, 0, -1, -2, 0, 0, -2, -2
1491505404328,-1, -10, -5, -2, -1, -3, 0, 1
1491505404342,-1, -5, -1, -1, -2, -1, -1, -3
1491505404350,0, 1, 0, 0, 0, 0, 2, 2
1491505404357,-2, -1, 0, -1, -1, 0, 0, 1
1491505404372,-5, -6, -2, -3, 0, -2, -1, -4
1491505404381,8, 13, 9, 0, -2, -1, 0, 2
1491505404388,0, -3, -4, -4, -1, -3, -2, -3
1491505404403,-4, -2, -2, 0, -3, 0, -2, -5
1491505404404,-3, -1, -7, -1, 1, -2, -2, -2
1491505404410,-3, -2, -1, 0, -2, 1, -1, -2
1491505404417,-3, -4, -3, -2, 0, -1, -2, -3
1491505404432,0, -4, -4, -3, 0, -2, 0, 1
1491505404440,1, 3, 5, 1, 0, 0, 1, 1
1491505404449,1, 0, 1, -1, -1, 1, -1, 0
1491505404462,-2, -5, -2, -1, -3, -1, 0, 1
1491505404470,-1, -3, -5, 0, 0, -1, -1, -2
1491505404479,-3, -3, -1, -2, -2, 0, -1, 0
1491505404492,-3, -3, -2, -1, 1, 0, -2, -2
1491505404500,-2, -1, -1, 2, -1, -1, -1, -4
1491505404508,2, 6, 3, 0, 0, -2, -1, 0
1491505404523,-2, -3, -2, -2, 0, 0, 0, -2
1491505404530,-2, -3, -1, 1, 0, 0, -1, -4
1491505404537,-1, -9, -7, -3, -2, -4, -1, -1
1491505404552,1, -4, 0, 1, 0, -1, 0, 1
1491505404560,-2, -2, -3, 0, 1, -1, -2, -1
1491505404568,-1, 1, -2, -1, -2, -2, 0, 0
1491505404582,2, 13, 10, 1, 0, 1, -1, 0
1491505404590,8, 5, 0, -1, 0, 0, -1, 0
1491505404597,2, -2, -3, -2, -2, -3, 0, -1
1491505404612,-6, 1, 1, -1, -1, -2, -2, -4
1491505404613,1, -2, -4, -1, 0, 1, 1, 3
1491505404620,-2, -2, -1, -1, -1, -1, -2, -3
1491505404628,0, -3, -1, 1, 0, 0, -1, -1
1491505404642,-2, -4, -2, 1, 0, 0, 1, 1
1491505404650,-2, 3, 5, 1, 0, 0, 1, -2
1491505404657,-1, 2, 2, 0, -1, -1, 1, -2
1491505404672,0, 0, 0, -2, -1, -1, -3, -2
1491505404680,0, -4, -3, 0, -1, 1, 0, 0
1491505404689,-7, -4, -1, -2, -2, -2, -1, -2
1491505404702,1, 3, -2, -1, -2, -1, -2, 2
1491505404710,7, -5, -3, -1, -1, -1, -1, -1
1491505404717,-1, -2, -3, 1, 0, 0, -1, 2
1491505404732,-1, 1, 0, 0, 1, -1, 0, 1
1491505404740,-2, -3, -1, -2, 1, -2, -3, -2
1491505404748,-2, -1, -3, 0, -3, -1, -1, -1
1491505404762,-1, -4, -2, -3, -1, -1, -1, -2
1491505404773,-7, -2, -3, -2, 0, -1, 2, -1
1491505404777,-3, 0, -1, -2, -2, 0, 0, 0
1491505404792,-2, -1, 0, -1, -3, -1, -1, -2
1491505404800,4, 10, 5, 0, 0, 0, 0, -1
1491505404807,4, 1, -4, -1, -1, -2, -1, -1
1491505404808,-3, -5, -4, -1, 0, -1, 0, -1
1491505404823,-2, -9, -2, -1, -1, -1, 0, -1
1491505404830,0, 3, 0, -2, 0, 0, -2, -1
1491505404837,-2, 2, 0, 0, 1, 1, -1, -1
1491505404852,-1, 0, -1, 0, 0, -1, -3, -1
1491505404860,-2, 0, 0, -1, -3, -2, -5, -8
1491505404868,-2, 3, 3, -1, 0, -1, 0, -2
1491505404882,0, 6, -1, -1, -1, 1, -1, -2
1491505404890,0, -1, 0, 1, 0, -2, -1, -1
1491505404898,0, -3, -3, -2, -2, -2, 0, 0
1491505404912,0, -1, 0, 0, -2, -1, -1, 0
1491505404920,-1, -5, 0, 0, 0, -1, -2, -1
1491505404934,-1, 0, -4, -1, -1, -1, 1, 1
1491505404935,-2, -3, -3, -2, -1, -3, -2, -4
1491505404942,-6, -5, -2, -2, -2, 0, 1, 0
1491505404950,1, 0, 0, 0, 0, 0, -1, -2
1491505404964,-1, -1, 1, -1, 0, -1, 1, 0
1491505404972,-3, -3, -2, -1, 0, 1, -2, -2
1491505404980,-2, -4, -2, -1, -2, 0, 1, 2
1491505404995,2, 11, 6, 0, 1, -1, 1, 3
1491505405002,2, 0, -3, -2, 0, -3, -1, -1
1491505405010,1, -5, -6, -1, -1, 0, 0, 0
1491505405024,-1, -2, 0, 0, 0, -1, -1, -1
1491505405033,1, -6, -2, -2, -3, 0, -4, -2
1491505405040,11, 3, -1, -2, -2, -1, 0, -1
1491505405054,-4, 1, 1, 0, 0, -1, -1, -3
1491505405055,1, -2, 2, 0, -2, 0, 1, 1
1491505405062,2, -8, -2, 0, 0, 0, -1, -1
1491505405070,0, 1, 1, 1, -1, -2, 1, -1
1491505405084,-4, 0, -1, 0, -3, 0, -2, -3
1491505405092,-2, -2, 0, 0, 1, -1, 1, -3
1491505405100,0, -1, -1, 1, -1, -3, 1, -1
1491505405115,0, 0, -2, -1, 0, 0, -1, 0
1491505405116,-2, 1, -4, -1, -2, -3, -1, -2
1491505405122,1, 6, 3, -1, -1, -2, 0, -1
1491505405130,-5, -10, -6, -1, 1, 0, 1, -1
1491505405144,-4, -6, -4, -1, -2, 0, -3, -5
1491505405152,1, 1, 3, -1, -1, -1, -1, -1
1491505405160,-1, 2, 1, -1, 2, -1, 0, 1
1491505405175,-1, 2, 2, -1, -1, 0, -2, -1
1491505405182,1, 1, 0, -1, 0, 0, 1, 0
1491505405190,1, -2, -4, -1, -1, -3, 0, -3
1491505405191,-2, 0, 0, 0, -3, 1, 0, 0
1491505405204,-3, -7, -3, 0, 0, -1, -1, -1
1491505405212,-3, 1, -1, -1, 1, -1, -1, -4
1491505405220,-2, -1, -2, -1, -2, -1, -2, -1
1491505405235,0, -2, -2, -1, 0, -3, -1, 1
1491505405242,-1, -3, -2, -2, 0, -1, -1, -2
1491505405243,-1, 3, 0, 0, -2, -1, -1, 0
1491505405250,-3, 5, 4, 1, -1, -2, -1, -2
1491505405264,2, 2, -1, -1, -1, 0, -2, -1
1491505405272,-4, -8, -6, -2, -3, -2, -4, -2
1491505405280,-1, 0, 1, 0, 0, 1, 1, -1
1491505405301,-1, -1, -1, 0, 1, -2, -2, -3
1491505405302,-1, 0, -4, -3, -2, -4, -3, -2
1491505405303,-1, -2, -1, -1, -1, -2, -1, 0
1491505405310,1, 0, 0, 0, 0, 2, 0, 0
1491505405324,-3, 0, 0, -1, -1, 0, -1, -1
1491505405332,3, -2, -4, -2, 0, 1, 0, 2
1491505405340,-4, -3, 0, -1, 0, 0, -1, -1
1491505405355,10, -3, -6, -3, -2, -1, 0, 2
1491505405362,-1, 4, 1, 1, -2, -2, -1, -3
1491505405370,-3, 0, -1, 0, -1, -1, 0, -1
1491505405384,-2, -4, -2, -1, -1, -1, -1, 1
1491505405392,0, 9, 5, 1, 1, -1, -2, -2
1491505405400,0, -2, -4, -2, -1, 1, -1, -1
1491505405415,-2, -3, -2, -2, -2, -1, -1, 1
1491505405422,0, -4, -4, 0, -1, -1, -1, -2
1491505405430,0, -1, 0, -2, -1, -3, -2, -2
1491505405444,-4, -1, -2, 0, 0, -3, -2, -2
1491505405452,6, 2, 0, 1, 0, 1, 0, -6
1491505405460,2, -2, 7, 0, -1, -1, 0, 2
1491505405474,-3, -3, -2, -1, -1, -2, -2, -2
1491505405482,-1, -1, -2, -2, -1, 0, -2, -3
1491505405490,0, -6, -2, 1, -1, 0, -1, 1
1491505405504,1, -1, -2, 0, -1, 0, 1, 2
1491505405512,-6, -2, -3, -3, -1, 1, 1, -2
1491505405519,0, 4, 2, 0, 0, 0, 1, -2
1491505405536,-7, -4, -2, -1, 0, 1, -1, -3
1491505405542,-4, -1, 0, -1, -2, 1, 0, 0
1491505405550,11, 1, -3, -3, -3, -1, -2, -2
1491505405551,-3, 2, 0, -1, 1, -1, -2, 0
1491505405564,0, -6, -6, 0, 0, -2, -1, -1
1491505405572,0, -5, -3, -1, -1, -2, -1, 0
1491505405582,-1, -2, -2, -1, 0, -1, -1, -2
1491505405596,-2, 1, -1, 0, -1, -1, 1, 0
1491505405602,0, -2, -1, 0, 0, -1, 0, 0
1491505405613,-1, -1, 0, -1, -2, -3, -2, -2
1491505405624,0, -2, -2, 2, 0, -1, -1, -2
1491505405625,-1, -1, -1, -2, 0, 1, -1, -5
1491505405632,-1, -2, -1, 0, -1, 1, -1, -3
1491505405640,2, 1, -1, -1, -1, 0, -1, 1
1491505405655,1, -9, 5, 1, -1, -1, -1, 1
1491505405663,-3, -1, 1, 0, 0, 0, -1, -2
1491505405672,2, 0, -2, -1, -3, -2, -1, 0
1491505405684,1, 5, 4, 0, -1, -3, 0, -1
1491505405692,-1, -2, -4, -2, 0, 1, 0, -3
1491505405700,-2, -7, -6, -2, -2, -2, -1, 0
1491505405715,-2, 3, 1, -1, -1, -1, -1, 2
1491505405722,2, 0, 0, 0, 0, 0, -1, -2
1491505405730,-2, 1, -2, 1, 0, 0, 0, 0
1491505405745,2, 1, -1, -3, -2, -2, -1, -3
1491505405752,-2, 1, 0, -3, -1, -4, 0, 0
1491505405759,-2, 8, 4, -1, -2, 0, 0, 1
1491505405774,-2, 3, 1, -1, -1, 0, -2, -3
1491505405782,-1, -5, -3, -2, 0, 2, -1, 0
1491505405791,0, 0, -1, -1, -2, -1, 0, -3
1491505405804,-3, -7, -6, 0, -1, 0, 0, -1
1491505405812,-6, -6, -3, -2, -1, 0, 1, -2
1491505405820,-3, -3, -1, 0, 0, -1, -1, -1
1491505405835,-2, 0, 0, 0, 0, -1, 0, 0
1491505405842,-1, -1, 0, 0, 0, 0, -1, -2
1491505405857,3, -1, 0, -1, 0, -1, 0, 1
1491505405865,-5, -5, -5, -3, 0, -2, -2, -1
1491505405866,6, -1, 1, 1, 1, -1, 0, 2
1491505405872,4, 3, 1, 0, 0, 0, 1, 1
1491505405887,-2, 0, -1, -1, -1, -1, -1, -3
1491505405894,-1, -11, -5, -2, 0, 1, -2, -5
1491505405895,2, 0, -6, -1, 0, -2, 0, 1
1491505405902,0, -3, -3, 0, 0, -2, -1, 0
1491505405917,-4, -1, 0, -1, -1, 2, -1, -3
1491505405924,-2, 0, 0, -3, -2, -1, 1, -1
1491505405932,-5, -3, -2, -1, -1, 0, -1, -3
1491505405948,-1, -2, 0, 2, 0, 1, 0, -2
1491505405949,-2, 2, -2, 1, -2, -1, -1, -1
1491505405954,1, 2, -1, 0, -3, -1, -3, -1
1491505405962,1, 1, 0, 0, 1, -2, -1, 0
1491505405977,0, 4, 3, 0, 0, -1, -2, 0
1491505405984,0, -1, -2, -3, -1, -2, -1, -2
1491505405992,0, 0, 6, 0, -2, -2, -2, -3
1491505406006,-1, -4, -2, 0, 1, -1, -1, 1
1491505406015,5, 2, -2, -2, -2, -1, -1, -2
1491505406022,-5, -6, -3, -1, -1, -1, 1, 0
1491505406037,2, 1, 2, 0, -1, 0, 0, 1
1491505406044,0, 1, 0, -1, 0, -2, -2, -2
1491505406052,-1, 1, -2, -1, -1, 0, 1, -2
1491505406066,-2, 1, 1, 0, -3, 1, -1, -2
1491505406074,1, 0, -1, 1, -1, -3, -1, -2
1491505406075,-3, -1, 0, -1, 0, 0, 0, 1
1491505406082,9, 4, 1, 0, 0, -3, 1, 0
1491505406097,0, -3, -3, -2, 0, -1, -2, -1
1491505406104,-5, -4, 0, 0, 0, 0, -2, -1
1491505406112,-4, -7, -5, -2, -2, 0, -1, -5
1491505406126,-1, 1, 0, 0, -1, -2, -2, -2
1491505406134,0, -3, -2, -1, 0, -2, -3, 0
1491505406142,0, -1, 0, -1, -2, 0, 0, -1
1491505406157,3, -1, -1, 1, 1, 1, -1, 0
1491505406165,0, -5, -5, -2, 0, -1, -3, -3
1491505406172,-2, -3, -2, 3, 0, -3, 2, 1
1491505406186,-5, -1, -2, -1, -2, -2, -1, -3
1491505406194,2, 1, 0, 0, -1, -2, -2, -3
1491505406202,2, 1, -1, -5, 3, 0, 0, 2
1491505406217,-1, 2, -1, -2, -1, 1, -1, 2
1491505406224,2, 7, 4, -2, -4, -1, 0, 2
1491505406232,-9, -4, -2, -1, -3, -1, -1, -1
1491505406246,9, 6, 7, -2, -1, 0, -1, 0
1491505406247,-3, -7, -3, 3, 0, 0, 2, -1
1491505406255,-2, -4, -2, 5, 1, -1, 1, -3
1491505406262,-1, 0, 3, -1, -1, -1, -3, -3
1491505406277,1, 1, 4, -3, -1, 0, 1, 0
1491505406284,2, -3, -4, -3, -5, -1, 0, 0
1491505406292,1, -2, -1, 0, 4, -3, -1, -1
1491505406306,-2, -5, -5, -1, -1, 0, -4, -4
1491505406314,-3, 3, -2, -3, -4, -1, 0, -1
1491505406322,-4, 0, -1, -1, 0, -2, -2, -3
1491505406337,6, 3, 4, -1, 1, 1, -1, -1
1491505406344,0, -1, 0, -1, 0, -1, -2, 1
1491505406352,-2, -4, 1, -1, -1, -2, -1, -3
1491505406366,-8, 0, -2, -2, -1, 0, -1, -3
1491505406367,10, 3, 0, 0, 0, 1, 0, 2
1491505406375,-2, -3, -6, -2, -3, -2, -1, 0
1491505406382,-5, -5, 1, 2, 0, -1, -1, -1
1491505406397,3, 8, 5, -2, -2, -1, 0, -1
1491505406405,1, 10, 4, 0, 0, -1, 1, 3
1491505406413,-4, -3, -4, 1, -1, -1, 1, -2
1491505406426,-2, -1, -4, 0, -1, -3, -2, 0
1491505406427,6, 5, 4, 1, 0, 0, -1, -4
1491505406435,-3, 2, -5, -3, -2, 1, -3, -4
1491505406442,-5, -5, -6, -3, -2, 1, -2, -3
1491505406458,-3, -2, -2, 0, -1, -1, 0, -1
1491505406465,-4, -2, 1, -1, 0, -2, -3, -3
1491505406473,1, -1, 0, 0, -1, -1, 0, 2
1491505406486,0, 0, -1, -1, -2, 0, 2, -5
1491505406487,-3, 1, -1, -3, 0, -1, 0, 1
1491505406495,3, -9, -3, -2, 0, 0, -1, 0
1491505406502,2, -3, 2, 0, 1, -1, 1, 3
1491505406517,3, -3, -6, -4, 0, 0, -4, -4
1491505406525,-11, -15, -11, -2, -1, -2, 0, -8
1491505406533,4, 8, 3, 1, 2, 1, -1, 2
1491505406534,0, -1, -2, -5, -7, -5, -3, 5
1491505406546,2, -1, -5, 0, -1, -2, -3, -2
1491505406547,-3, -1, -1, -3, -1, -1, -6, -1
1491505406554,-3, -8, -9, 0, -1, 2, -4, -1
1491505406555,0, 5, 11, 2, 2, 2, 3, -3
1491505406562,4, 2, -2, 0, -2, -3, -4, -3
1491505406584,-3, 2, -4, -4, -2, -3, -5, 0
1491505406585,-2, 2, 2, 3, 6, 2, 5, 0
1491505406592,0, -5, -8, -3, -4, -3, -2, -3
1491505406593,0, 6, 13, -2, 3, 0, 1, 1
1491505406606,0, -1, -2, -2, -4, -4, -2, -1
1491505406614,4, 1, 4, 13, 6, 3, 1, 1
1491505406615,-5, -8, -5, 2, 0, 1, 1, -8
1491505406622,3, 3, 7, 1, 0, 0, -1, 2
1491505406637,-3, 0, -7, -2, -3, -1, 0, 0
1491505406644,6, -3, -4, -8, 0, -1, -1, -2
1491505406645,-3, -3, -2, 10, 2, 0, 6, -3
1491505406653,3, 2, 1, 4, 7, -1, 4, -3
1491505406666,1, -3, -2, -7, -3, 1, 0, 2
1491505406667,0, 4, 14, 2, -1, 0, -2, 0
1491505406675,-1, -1, -5, -5, 0, -1, -2, 0
1491505406682,2, 1, -2, -9, -9, -3, 1, -7
1491505406697,0, -11, -2, -2, -8, -1, -3, 2
1491505406705,-1, 2, -7, 4, 4, 1, -4, 3
1491505406714,-5, -4, -9, -2, 1, 0, 6, -2
1491505406727,-5, 9, -1, 0, -3, -1, -3, -4
1491505406734,-5, -7, -8, -10, -6, 0, 1, -7
1491505406735,3, 0, 3, 2, 5, 0, -13, 4
1491505406744,5, 9, 23, -9, -9, -2, -2, 5
1491505406758,5, 11, 5, 2, 0, -1, 3, -14
1491505406765,0, -3, -1, -1, -2, -2, -8, 1
1491505406772,-4, 2, -6, -6, -3, -2, -1, -1
1491505406773,8, -4, 2, 5, -1, -2, 1, 6
1491505406786,-2, -4, -6, -14, -8, 0, -2, 1
1491505406795,-5, -1, -8, 0, 4, 4, 6, -2
1491505406809,-6, -6, -5, 2, 5, -1, 3, -1
1491505406817,-7, -3, 1, -10, -7, 1, 1, 1
1491505406825,-7, -4, 7, -2, 1, 1, 0, -5
1491505406840,12, 9, -2, -1, -3, -1, -2, -20
1491505406846,-1, -6, -7, 3, 4, -1, 1, -4
1491505406856,-10, -4, 4, 2, -1, 0, -3, -11
1491505406869,-3, -6, -9, -1, 1, -2, -2, -1
1491505406879,5, 0, 4, 1, -1, -3, -6, 3
1491505406885,6, 5, -3, -1, 0, 2, 1, 10
1491505406899,-6, -5, -5, -6, 3, 0, -1, -15
1491505406900,-2, -1, -1, -4, 11, 3, 2, -6
1491505406906,9, 1, -3, 5, 2, -2, 1, 3
1491505406915,7, 0, -6, -5, -8, -3, -2, 12
1491505406929,-3, -13, -7, 2, 2, 2, 0, -4
1491505406937,-8, 22, 0, 2, -5, -2, -3, -5
1491505406944,-11, -12, -9, -1, 0, -1, -1, -11
1491505406959,-5, -13, -4, -5, -6, -1, -3, 8
1491505406966,-2, -3, -3, -1, -3, -1, -2, 7
1491505406974,-6, -3, -4, -6, -2, -3, 0, -9
1491505406989,-4, 2, -2, -6, 7, 1, -1, -16
1491505406997,-4, -8, 0, 10, 4, -1, -2, 0
1491505407004,10, 1, 1, -1, -2, -1, 1, 6
1491505407019,6, 3, 2, -6, -5, -3, -3, 1
1491505407026,6, 2, -7, -20, -20, -5, 0, -12
1491505407035,-10, -8, 1, 4, -3, 1, 1, 3
1491505407049,-1, 7, -1, -3, -3, -1, -2, 2
1491505407057,0, 17, -5, 4, 6, -1, -2, 7
1491505407064,-9, -8, 18, 15, 3, 3, -1, -1
1491505407079,3, 4, -13, -7, 3, -2, -3, -6
1491505407080,3, -11, -3, 6, -1, 1, 2, -5
1491505407089,10, 5, -5, 3, 1, -1, -3, -4
1491505407094,-12, -9, -12, 5, 1, 1, 1, -3
1491505407095,-3, -5, 3, -3, -2, -1, -1, 6
1491505407109,-5, -6, -5, 2, -3, -1, 0, 14
1491505407117,3, -5, -6, -13, -8, -3, 0, 0
1491505407124,9, 5, -6, 3, 4, -1, -1, -1
1491505407139,-2, -11, 0, -5, -6, -4, -1, -3
1491505407140,-4, 5, -4, 2, 1, -3, -3, -8
1491505407146,-12, -16, -10, -3, 1, 0, -2, -7
1491505407154,5, 9, 16, 8, 5, -2, 0, -4
1491505407169,-7, 1, -7, -4, -8, -2, 0, 7
1491505407177,1, -4, -13, -4, -2, -1, -3, -7
1491505407184,-2, -10, -1, -5, -3, 0, 0, -12
1491505407199,11, 14, 21, 3, 1, -4, -3, -3
1491505407200,-3, -4, -7, -7, -9, 0, -1, -15
1491505407206,-3, 3, 2, -7, -1, 5, 1, 2
1491505407214,-4, -7, -5, -14, -11, -1, 1, 0
1491505407229,0, 5, 4, 3, -5, -2, -1, 5
1491505407237,-10, -7, 1, 0, 2, -2, -4, 0
1491505407244,-5, 0, -1, 3, 8, -4, -4, -2
1491505407259,0, -1, -3, -3, -4, 0, 2, 2
1491505407260,8, 1, 2, 4, 6, 1, 0, -13
1491505407266,8, 4, 2, -1, -7, 1, 3, -8
1491505407274,-1, -4, 1, 0, 2, -1, 0, 19
1491505407291,-7, -4, 4, -5, -15, -4, -4, -2
1491505407299,4, 0, 0, -1, 0, 2, 3, 5
1491505407305,-3, 1, 0, 16, 19, 0, 0, 2
1491505407319,-3, -4, -2, 3, 0, 0, 1, 10
1491505407326,-2, 1, -4, 13, 25, 1, -1, -3
1491505407335,7, 13, 3, 0, -2, 0, -2, -5
1491505407349,0, -3, -5, -11, -2, -1, -1, -3
1491505407357,-1, -3, 0, -5, -6, -1, 0, -1
1491505407372,1, 3, 0, -4, -3, -2, -3, -3
1491505407380,-1, 0, 1, -3, -1, -1, -3, 0
1491505407387,-7, 1, 11, -2, -5, -1, 1, -2
1491505407394,10, 4, -2, 2, 5, -1, 0, 1
1491505407410,3, 2, -3, -4, 2, -3, -2, -5
1491505407417,-18, -10, -2, 2, 1, 0, 3, -6
1491505407433,18, 5, 2, -1, -10, -5, -1, 14
1491505407439,5, 6, -2, 3, 5, 2, -4, -2
1491505407440,-5, -5, -4, -2, -2, -1, -6, -1
1491505407448,-3, -4, 0, -13, -22, -2, 1, -6
1491505407454,6, -2, 5, 17, 11, 0, -1, 3
1491505407471,-12, -1, 4, 7, 3, -3, -1, -2
1491505407477,2, 8, 4, -5, 4, 2, 2, 8
1491505407493,-9, -9, -5, -6, 0, 2, -1, -1
1491505407499,2, 6, 0, 7, 1, -2, 1, -4
1491505407500,7, -1, 0, -6, -4, -3, -2, -11
1491505407509,-2, 1, -1, 4, 4, 0, 0, -2
1491505407515,-5, 1, 3, -7, -16, -2, 0, -2
1491505407530,12, 6, -1, 0, 5, 0, 4, -5
1491505407537,7, 12, 0, -4, 4, 0, 2, -1
1491505407553,-9, -8, -7, -1, -4, -1, -3, -2
1491505407559,12, 11, 3, 0, 6, -1, -8, 4
1491505407560,-11, -10, -3, -3, -5, 0, 1, -13
1491505407567,3, 1, -2, 2, 3, 1, -4, 1
1491505407574,-2, -13, -11, -2, -3, -2, -1, 26
1491505407592,5, 7, 4, 13, 3, 0, -3, -8
1491505407597,1, -2, -10, 0, 3, 1, 2, -12
1491505407613,10, 6, -4, 0, -9, -2, -1, -4
1491505407619,-3, -3, -2, -1, -3, -2, -2, -7
1491505407628,-23, -16, -2, 0, -7, -5, -2, 1
1491505407634,-12, -6, 0, 1, -11, 0, -2, -5
1491505407635,9, 8, 0, -1, 1, -2, 0, 11
1491505407650,1, 0, 2, -6, -6, -1, -3, 5
1491505407657,-17, -7, 2, 17, 15, -1, -5, -29
1491505407672,-3, -4, -1, -3, -2, 1, -6, -7
1491505407680,14, -1, 1, -4, -13, -3, -3, 23
1491505407687,4, -3, 2, 0, 10, 6, 5, 6
1491505407694,0, 0, 0, 9, -2, 2, -1, -4
1491505407710,11, 9, 0, 0, 10, -1, -1, 0
1491505407718,-2, -2, -4, -8, 7, 1, -1, 10
1491505407732,11, 1, -5, -5, -4, 0, 4, 12
1491505407739,-8, 0, 3, -10, -22, -1, 1, -1
1491505407748,-6, -3, -5, -5, -4, -2, 0, -6
1491505407762,1, 15, 0, -1, -2, -7, -4, -18
1491505407770,-14, -6, -6, 8, 5, 3, 2, 11
1491505407777,-17, -14, -5, 0, 5, 1, 0, -12
1491505407792,-5, -1, -1, 6, 11, -2, -6, -13
1491505407800,3, 3, 3, 1, -4, -4, -2, 4
1491505407807,4, -2, 1, -1, 6, -4, -4, 1
1491505407822,15, 6, -1, -4, 2, 0, 0, 3
1491505407830,5, 11, -2, -2, 0, -2, -1, -14
1491505407837,1, -3, -1, 6, 1, 4, 4, -5
1491505407852,-5, -6, -3, -7, -4, -2, -2, 0
1491505407859,-4, 0, 12, 6, 7, 2, -2, 3
1491505407876,2, -1, -4, -4, -10, -1, 0, -3
1491505407882,-5, -3, -1, 0, 1, -5, -5, -4
1491505407897,9, 11, 0, -4, 0, 3, 2, -11
1491505407898,-9, -7, -2, -3, -4, -2, 3, -1
1491505407913,-1, 3, 3, 3, 2, -1, -1, -5
1491505407920,-9, -1, 0, -1, 3, 2, 0, -5
1491505407927,-7, -6, -4, -3, 0, -3, 0, -1
1491505407928,-1, -7, -8, -4, -7, -2, 0, 4
1491505407942,-3, -5, -5, 0, 1, -2, -4, -6
1491505407951,-7, -4, 0, -1, -3, 0, 1, 5
1491505407957,-4, -6, -7, -2, -2, -1, -2, -3
1491505407973,11, -11, -9, 1, -1, -2, -1, 7
1491505407980,0, -15, -1, -3, -1, 2, -3, -15
1491505407987,-13, 15, 15, 2, 0, 0, -2, 2
1491505408002,-4, -59, -18, 0, 1, -1, -1, -6
1491505408003,-23, 48, -31, -8, -5, -5, -1, 16
1491505408011,37, 64, 18, 10, 2, -1, 1, 20
1491505408018,19, -5, -10, -2, 2, 0, -5, -8
1491505408033,-13, 1, -3, -9, -3, -1, -4, -10
1491505408040,6, 9, 16, 0, 1, 1, 4, -11
1491505408048,-12, -34, -3, -2, 1, 1, 0, -9
1491505408062,-10, -19, -5, -4, -3, -3, -2, -10
1491505408070,-6, 3, -3, -2, -3, 0, 2, -15
1491505408077,10, -1, 19, 4, -2, 2, 1, 14
1491505408092,-2, -13, -4, -7, -3, -2, 0, -11
1491505408100,-14, -15, -2, -1, 1, -3, -2, -5
1491505408107,4, -14, -19, -5, -1, -1, -1, 8
1491505408122,0, -4, -4, 2, 1, 1, 0, 13
1491505408131,-2, -6, -1, -5, -6, -2, -2, 10
1491505408137,2, 3, 2, -2, -3, 0, -1, 6
1491505408156,4, 5, 4, -2, 2, -1, 0, -18
1491505408159,1, 1, -3, -2, -2, -4, -2, -1
1491505408170,-8, -16, 5, 3, 0, -1, -3, 3
1491505408182,5, -8, 5, 4, 4, 2, 1, -4
1491505408191,-5, -3, 0, -1, -5, -3, -1, -4
1491505408197,9, 4, -7, -6, -3, -1, -2, 1
1491505408213,-1, 1, 7, 1, -2, 1, 2, 5
1491505408220,-8, -18, -11, -2, 0, -2, 0, -4
1491505408229,-6, -6, -3, 1, 0, 0, -1, -3
1491505408242,10, 12, 4, -2, -1, 0, -2, -13
1491505408250,15, 2, 11, 3, 6, 1, -1, 14
1491505408257,-5, -3, 1, 0, 0, 0, 0, 1
1491505408272,-10, -7, -5, -2, -2, -2, -3, -27
1491505408279,8, 5, 6, 2, -3, -1, -6, -1
1491505408295,-17, -15, -10, -4, -2, 0, 1, -10
1491505408302,-2, 2, 3, -1, 0, -1, -1, 21
1491505408310,7, 11, -2, 3, 2, -2, -3, 7
1491505408317,-9, -8, -7, -1, -2, 2, 4, 0
1491505408332,3, 16, 3, 2, 1, -1, 1, 10
1491505408339,-6, -4, -8, -3, -3, 0, -2, -11
1491505408348,-6, -15, -13, -6, -1, 0, 0, -5
1491505408362,-3, 2, -5, -3, -2, -2, -1, -10
1491505408370,-9, 7, 6, 0, 1, 1, 6, 27
1491505408379,0, -14, -4, -1, 1, -2, -1, -3
1491505408393,-2, 8, 1, 1, 0, -1, -3, -10
1491505408400,3, 4, -3, -5, -1, 0, 0, -3
1491505408407,4, 9, 11, 0, -2, 0, -4, -5
1491505408422,-1, 4, 4, 2, -2, -2, -1, 2
1491505408430,1, -4, 1, -5, -7, -4, -5, -8
1491505408437,-5, 5, 6, 1, 3, -1, 0, -18
1491505408452,-20, -16, -9, -3, -1, 0, 0, -1
1491505408453,4, -6, -8, -1, 0, -1, -1, -11
1491505408460,15, 4, -3, -2, -3, 0, 0, 31
1491505408467,21, 0, -6, -2, -1, 0, 1, 0
1491505408468,-1, -12, 0, 0, -4, -2, -1, -6
1491505408482,0, 6, 17, 3, -3, -2, -1, -4
1491505408490,13, 18, 5, -1, -4, 0, -2, -9
1491505408497,-8, -6, -5, -1, 3, 1, -1, -5
1491505408513,13, 15, 11, 1, -2, -2, 1, 7
1491505408514,-3, -11, -8, 0, 1, -1, 0, -7
1491505408520,-1, 3, 10, 0, -1, -2, -4, -28
1491505408527,3, 4, 4, 2, 1, 0, 3, -14
1491505408542,-27, -10, -4, 1, 0, 0, -2, 13
1491505408550,-8, 0, -2, -2, -1, 1, -3, -6
1491505408557,-20, -12, -8, -2, -2, 0, 0, -4
1491505408572,16, 2, 2, 0, 2, 0, 2, 0
1491505408579,-14, -6, -6, -1, -4, -1, 0, -4
1491505408594,-17, -5, -4, -2, 3, 1, -1, 8
1491505408602,10, 3, 0, -1, 0, -3, 1, -4
1491505408610,-4, -10, -4, -2, -3, 0, -4, 2
1491505408617,6, -2, 0, 0, -2, 0, 0, 15
1491505408632,2, -1, -5, -1, 1, 0, 5, 47
1491505408640,-1, 9, 16, 3, 1, -1, -4, -16
1491505408654,-7, -8, -6, -2, -1, -1, -4, -30
1491505408662,-23, -8, -10, -4, -1, 1, -2, -55
1491505408670,-12, -2, 1, -1, -2, -4, -8, -29
1491505408685,27, 3, -5, -2, -1, -2, -3, -15
1491505408692,-20, -6, -3, -2, -4, -1, -1, -5
1491505408699,-7, 7, -2, -2, 0, -1, 1, 19
1491505408714,-2, -4, -1, 1, -1, 1, 2, 8
1491505408736,25, -4, 3, 0, -1, 0, 2, 27
1491505408738,18, 3, 10, 3, 0, -1, 1, 7
1491505408744,5, 2, -7, -4, -7, -4, -6, -5
1491505408752,-6, 2, -2, -2, 1, 0, -3, -24
1491505408759,6, -12, -19, -2, 0, 3, 5, 24
1491505408774,27, 8, -3, 1, 0, 0, 2, 17
1491505408782,-11, -9, -6, -1, -1, -3, -2, -7
1491505408790,-21, 11, -4, -1, -1, -3, -12, -73
1491505408804,3, -10, 0, 2, 0, -2, -3, -2
1491505408805,10, -4, -2, -1, 1, -1, 2, 22
1491505408812,5, -12, -5, -3, -2, -3, 1, 11
1491505408819,2, 7, 9, 4, 2, 2, -1, -11
1491505408834,27, 3, -1, -4, -2, -2, 2, 56
1491505408842,-5, -7, 10, 1, 1, 2, 4, 58
1491505408857,-26, -8, 2, 1, -2, 0, -3, -29
1491505408864,-4, -2, -6, -4, -1, -1, 0, -1
1491505408872,-11, -1, 3, 3, 1, -1, -3, -4
1491505408873,-18, -2, -3, -4, -2, -1, -2, -16
1491505408879,8, -3, -6, 0, -1, -1, -1, -13
1491505408895,7, -16, -2, 1, 3, -3, 0, 39
1491505408902,-16, -14, -1, -2, -2, 1, 1, 4
1491505408910,10, 5, 5, -1, -3, 0, -1, -7
1491505408924,-3, -10, -3, -2, -1, 0, 0, 11
1491505408925,4, 11, 6, 3, 1, -1, -3, -2
1491505408933,16, 20, 10, 4, 0, 0, 0, 23
1491505408939,-9, -7, 3, -2, -1, 0, -2, -26
1491505408940,7, 6, -5, -1, 0, -1, -2, 15
1491505408955,-23, 7, 2, -2, 0, 0, -4, -33
1491505408962,-37, -13, -6, -3, -1, -3, -7, -23
1491505408970,9, 14, -6, -1, 0, 1, 3, -22
1491505408984,43, 11, 2, -1, -2, -1, -3, -14
1491505408992,4, -11, -5, 0, -1, 0, 0, 2
1491505408999,-9, 17, 3, -1, -1, 0, 2, -24
1491505409016,10, -4, -3, -2, -1, 0, -2, 20
1491505409022,-3, -4, 13, -1, 4, -3, -1, -10
1491505409030,-28, -8, -1, -4, -2, -1, 2, 24
1491505409044,-2, -26, -13, -3, -3, -1, 0, 24
1491505409052,11, -16, -11, -6, -2, -1, 1, 11
1491505409059,-13, 2, 2, 3, 0, -1, 1, -11
1491505409074,-13, -11, -10, -2, -2, -3, -2, 0
1491505409082,-27, -4, 0, 1, 0, 0, -3, -25
1491505409091,0, 13, 8, 1, 0, 0, 3, 22
1491505409105,-4, -8, -7, -3, -2, -1, -6, -60
1491505409113,9, -1, 18, 3, 1, 0, -2, -18
1491505409119,16, 19, 6, 3, 1, -2, -2, 18
1491505409142,-9, 4, -2, 2, 1, 0, -1, 7
1491505409143,26, 16, 6, -1, 6, 0, -2, 14
1491505409150,7, -4, -6, 0, -2, -2, 0, -5
1491505409164,-5, 2, -3, -2, -3, 1, -1, 5
1491505409173,-2, -11, -11, -1, -4, -3, -2, -1
1491505409179,4, 23, 15, -3, -1, -5, -2, 10
1491505409180,2, -6, -9, -3, -3, -1, 2, 8
1491505409194,-5, -14, -5, -2, 0, -1, 0, -3
1491505409195,-11, -12, -6, 0, 1, 0, -3, -20
1491505409202,36, -1, -1, -3, -1, 1, 0, 5
1491505409210,3, -22, 8, -1, 0, 0, 1, -1
1491505409226,-17, 5, 1, 0, -4, 0, 2, 7
1491505409232,19, 4, 0, -3, -1, -1, 0, 1
1491505409239,-25, -6, 0, -2, -4, 0, 2, 6
1491505409254,-20, -1, 0, 0, 2, 1, 0, -8
1491505409262,2, -23, -11, -3, -4, -1, 1, -19
1491505409270,3, 3, -4, 1, -1, 2, -1, -6
1491505409285,-5, 13, 16, 8, 3, -1, 0, 4
1491505409292,24, -4, -6, -2, -3, -4, -2, -10
1491505409293,-5, -4, 3, 0, -1, -1, 2, 18
1491505409300,5, 9, 5, 6, 0, 0, -3, -3
1491505409314,-21, -14, 0, -2, 1, 1, -2, -16
1491505409315,3, 18, -2, 0, -1, -1, -2, -16
1491505409322,5, 2, -1, -1, 0, -1, 0, 48
1491505409330,2, 18, -6, 0, -1, -1, -7, -21
1491505409344,-15, 0, 2, 0, -1, 1, -2, -6
1491505409345,30, 29, 12, 1, 1, 0, 0, -5
1491505409352,10, -2, -4, -3, 1, 1, 4, 21
1491505409353,-8, -15, -7, -2, 0, -4, -1, -2
1491505409359,4, 3, -1, 1, 0, 0, -3, -21
1491505409360,-14, -24, -17, -8, -8, -4, -5, -13
1491505409375,-37, 0, 6, -3, 4, 0, -1, 14
1491505409376,9, 8, 1, -2, -1, 0, 0, -16
1491505409386,37, 17, 6, 3, 3, 0, 4, -2
1491505409391,-28, -12, -2, -2, 0, 0, 0, 8
1491505409405,-28, -2, -6, -3, -3, -2, -4, -24
1491505409412,-2, 5, 7, 3, 2, 0, -3, -27
1491505409419,-1, -18, -8, -2, 1, 2, 3, 9
1491505409435,17, -8, -7, -6, -6, -5, -2, 25
1491505409436,1, 25, -2, -2, -4, -3, -5, -20
1491505409442,14, -11, -6, -5, -2, -1, 10, 58
1491505409457,-5, -30, -7, 1, 1, 0, -2, -18
1491505409464,-3, 2, 3, -1, -5, -1, -2, -19
1491505409472,28, -8, 1, -3, -3, -2, 4, 31
1491505409480,-11, -14, 10, 3, 4, 1, -2, -51
1491505409495,9, 4, -1, 3, 1, -1, 1, 61
1491505409502,-16, 6, 10, -3, -3, -4, -6, 4
1491505409510,-2, -2, 2, -2, -2, -1, 3, 23
1491505409524,7, -24, -21, -1, -4, -1, -6, -12
1491505409525,-1, 13, 17, 6, 2, -2, -2, 24
1491505409532,0, 4, -2, 0, 1, 1, 2, -9
1491505409539,-8, -4, -6, -3, -4, 0, -2, -3
1491505409555,0, -32, -9, -2, -6, -2, -1, -45
1491505409562,-8, -3, -10, 2, 6, 3, -1, -27
1491505409570,-6, -9, -12, -8, -3, -2, -3, -21
1491505409584,-10, -14, -5, -2, -1, -2, -2, 0
1491505409593,-5, 10, 5, 1, 0, -2, -1, 4
1491505409607,-1, -1, -8, -5, 0, 0, -2, -11
1491505409615,8, 17, 7, 0, -1, 0, 3, -13
1491505409622,-3, -6, -3, -2, -2, -2, 1, 1
1491505409637,1, 3, 1, 0, 2, 0, -1, 13
1491505409644,4, -2, -8, -2, -1, -2, -3, -15
1491505409652,-3, 2, -1, 0, 1, 1, 0, 2
1491505409667,0, -2, -2, 0, 0, -2, -1, 12
1491505409675,-6, -3, 4, -1, 0, 0, -2, -25
1491505409682,-6, -9, -3, 0, -1, 1, 0, -6
1491505409697,-11, 2, 1, 2, 0, -2, -4, 25
1491505409704,-2, 1, -1, -3, -2, 0, -2, -20
1491505409712,0, 10, 3, 1, 1, -1, -1, 2
1491505409729,13, 7, -1, -1, -1, -2, 0, -4
1491505409735,0, -12, -4, -4, -2, 0, -2, -5
1491505409742,3, 12, 6, 1, 0, 0, 0, -24
1491505409757,9, 25, 11, 4, 2, 1, 1, 20
1491505409764,3, -2, -3, -1, -2, -1, -2, 7
1491505409773,-5, -3, -3, 1, -1, 0, -1, 6
1491505409787,-5, 11, 0, 0, 0, 3, 1, 5
1491505409795,1, 2, -4, -2, -3, 0, 0, -6
1491505409802,-4, -9, -6, -2, -5, -2, -2, 1
1491505409817,8, -3, -2, -2, -2, 2, 0, 43
1491505409824,-4, -14, -8, -1, -1, 0, -3, -24
1491505409833,-4, -13, -7, -3, -1, -2, -1, -50
1491505409847,-2, -4, -5, -1, -2, -2, -2, -24
1491505409857,1, 6, -3, -1, -2, 1, -2, 6
1491505409863,0, 11, 3, 0, 1, 0, 3, 38
1491505409877,-5, -14, -2, -2, 1, -4, -2, 24
1491505409884,1, 12, 7, 1, -2, 1, -1, 19
1491505409885,-5, -2, 3, 2, 1, -2, -2, 12
1491505409892,2, 5, 0, -2, -2, -2, -1, -22
1491505409907,-1, -1, 2, -3, 0, 0, 0, -20
1491505409916,0, 14, 8, 1, 1, 0, -1, -20
1491505409922,0, -7, -1, -1, -1, 1, 1, -3
1491505409938,3, 10, 12, 1, 0, -1, -2, 8
1491505409944,-1, 6, 0, 0, 0, -1, -2, 17
1491505409952,2, 23, -4, -2, 0, -2, -1, 4
1491505409967,-3, -7, -3, -1, -1, -5, -5, 2
1491505409975,-7, -14, -5, -1, -2, 0, -1, -2
1491505409982,-1, 0, -2, -3, 0, 1, 0, 1
1491505409997,-2, -6, 1, -1, 1, 1, -1, -9
1491505410004,-7, 7, 2, -1, -1, 0, -3, -9
1491505410005,-3, -9, -2, -1, -2, 0, -2, -6
1491505410014,-3, -6, -3, -3, -1, -1, -2, -1
1491505410027,1, 1, -1, -1, -2, -3, 0, 1
1491505410035,0, -8, -4, 1, -2, -2, 0, -4
1491505410042,-6, -3, 8, 2, 0, 1, 1, 0
1491505410057,-3, 2, 6, 2, 0, -1, 1, -3
