timestamp,1,2,3,4,5,6,7,8
1491432625421,0, -2, -3, 0, -1, 4, -2, -2
1491432625430,-1, -1, -1, 2, 1, -1, -3, -5
1491432625431,0, 0, 0, 0, -2, -1, -10, 2
1491432625437,-3, -5, -2, -1, -2, 2, 0, -4
1491432625452,-1, 4, 1, 0, 1, 2, 5, -1
1491432625459,-3, -2, 1, 0, -2, 2, -8, 1
1491432625460,1, 2, -1, 0, -3, 0, -3, -2
1491432625469,0, -1, -4, -2, 1, -3, 1, 6
1491432625481,-1, 1, -1, 2, 0, 9, 2, 0
1491432625482,0, -2, 1, 0, 1, 1, 1, 1
1491432625489,1, -1, -2, 1, -2, 5, 3, 1
1491432625490,-1, -2, 1, -2, -2, 2, 0, 3
1491432625497,-2, 2, 0, 0, 0, 7, 0, -5
1491432625498,-2, -1, -1, -1, 0, -15, -2, -2
1491432625512,1, -1, 0, 0, 1, -23, 0, 2
1491432625519,1, 1, 1, 1, 1, -1, -12, 1
1491432625527,-5, -2, 0, -3, -3, -3, -3, -6
1491432625528,-3, 0, 1, 0, 1, 1, -6, -5
1491432625541,1, -2, -3, -2, 0, 1, 3, -1
1491432625549,1, -1, -1, -2, -2, 2, 0, 1
1491432625550,1, 2, -2, 0, -2, 4, 1, -2
1491432625556,0, -1, 1, 1, -1, -1, 6, 2
1491432625557,2, -2, -1, 1, -1, 1, -10, 9
1491432625571,-2, -2, -2, 0, -1, -1, -5, -8
1491432625572,0, 2, -2, 0, -3, 2, -4, -6
1491432625586,-1, 1, -3, -4, -6, 2, 2, -2
1491432625588,-1, 0, -1, -4, -2, -1, -7, -8
1491432625601,-1, 3, 0, 0, 3, -1, 14, 1
1491432625609,2, -5, -3, 1, 1, -1, 1, -1
1491432625617,-6, -1, -1, -1, -2, -3, 8, -2
1491432625632,0, -2, 0, -1, -2, -6, 4, 2
1491432625639,-1, -4, -1, 0, -2, -2, -7, -9
1491432625647,-3, -2, -3, -4, -2, 2, -2, -4
1491432625661,-2, -4, -2, -3, 0, 0, -5, 0
1491432625669,-9, -7, -2, -2, 0, 2, 5, -11
1491432625677,1, 1, 1, 2, 1, 2, 1, 2
1491432625692,0, -1, -1, 0, -1, 0, -2, 5
1491432625699,1, 1, 1, -2, 0, -1, -3, 0
1491432625707,0, 1, -1, 0, -3, -1, -7, -1
1491432625721,-1, -4, -5, -3, -4, -8, -8, -6
1491432625730,1, -2, -1, 1, 2, 3, 1, 8
1491432625737,-3, -5, -2, -4, -6, -1, 3, 3
1491432625752,2, 3, 2, -2, 2, 1, 5, 8
1491432625759,0, -3, -2, 0, -1, 1, 0, -3
1491432625767,2, 1, -3, -3, 15, 0, 4, 4
1491432625782,-1, -4, 0, -1, 3, 6, -1, 0
1491432625789,-4, -7, -5, -3, 0, 11, 2, -4
1491432625797,-3, 0, -3, -3, -4, -2, 1, 2
1491432625813,2, 0, 1, 0, -2, -5, 1, 5
1491432625819,-4, 0, 1, 4, -4, -3, -7, -7
1491432625827,3, -1, -2, -2, -5, -1, -1, 4
1491432625842,-2, -6, -5, -7, -2, 1, 0, 7
1491432625852,-2, 0, 1, -1, -4, -5, -7, -5
1491432625857,-2, -6, -4, -3, 0, -3, 1, -5
1491432625872,-5, -6, -2, -1, -5, 8, -4, -16
1491432625879,0, 8, 6, 3, 1, 1, -1, -9
1491432625888,-1, 1, 2, 1, 2, -6, -1, -1
1491432625902,1, -4, -1, 0, -4, -5, -1, 8
1491432625913,-5, -5, -6, -3, -26, -15, -6, -1
1491432625920,2, 0, -1, -4, 0, 1, 8, 6
1491432625932,-2, 1, 0, -3, 5, -4, -4, 4
1491432625941,-5, -2, -1, 1, -1, 2, -6, -12
1491432625948,1, 3, -1, 0, 1, 2, -4, -11
1491432625961,5, 2, 2, 1, 4, 6, 6, 9
1491432625970,1, 2, 3, 2, 2, -5, 2, 1
1491432625977,2, 2, -1, -3, -2, -4, 1, -1
1491432625992,4, 4, -2, 0, -1, 4, 4, 5
1491432625999,-2, -1, 0, 2, 2, -3, -2, -1
1491432626015,2, 0, -1, 0, 20, 5, -7, 0
1491432626022,-3, -1, -3, -2, 5, -4, -5, -7
1491432626030,-2, -5, -3, 1, 1, -1, -4, -5
1491432626044,0, 2, -1, -1, -5, 1, 2, 2
1491432626053,-1, 2, 1, 3, -3, 3, -1, -1
1491432626059,0, -5, 0, -3, -5, 4, 5, 4
1491432626074,0, -2, 0, 0, -8, 0, 1, 1
1491432626081,3, 2, 0, 0, 2, 1, 4, 8
1491432626089,-5, -5, 0, -1, -4, -4, 0, -3
1491432626104,-2, -1, -1, -1, -2, -2, -1, -3
1491432626112,-3, -4, -4, -4, -2, -3, 2, -1
1491432626119,-3, -8, -4, -1, -23, -16, -6, -1
1491432626134,-1, -2, -1, -1, -5, -2, -1, -2
1491432626141,-2, 2, -2, 1, 7, 8, 0, -6
1491432626149,-2, -8, -4, -2, -5, -4, -4, -1
1491432626164,-3, -3, -1, 0, 2, 1, -4, -4
1491432626172,-1, 3, -2, -1, 3, 1, 4, 5
1491432626179,-1, -3, -3, 0, 1, -2, -6, -3
1491432626194,1, 0, 4, 2, 4, -2, 1, 1
1491432626201,-2, -2, -2, -3, 2, 0, -1, -1
1491432626210,-3, 0, -3, 0, -3, 0, -2, -1
1491432626224,0, -1, 2, 3, 6, 0, -3, -4
1491432626233,-1, -2, 1, -4, 0, 1, -1, -5
1491432626240,1, 0, 1, -2, -3, -5, -2, -4
1491432626241,0, -1, -1, -2, 2, 3, 1, -1
1491432626254,-2, -2, -1, 1, 7, 2, -2, 4
1491432626261,1, -3, -2, 0, -3, -1, 1, 6
1491432626269,2, 0, 1, -2, 1, -1, 0, 0
1491432626284,-3, 0, 1, -2, -3, 2, -1, -5
1491432626292,1, 0, -5, 0, -3, -3, 3, 1
1491432626299,0, 3, 0, -1, -1, -3, -2, -2
1491432626314,-1, -2, 1, -3, -4, 1, -1, 0
1491432626321,-2, -3, 0, 0, 0, -3, -1, -3
1491432626330,0, -2, -2, -1, 0, 0, 0, -4
1491432626344,3, 2, -1, 1, 2, -2, 0, -4
1491432626352,0, 0, 3, -3, -4, -3, -2, -3
1491432626366,0, -2, -5, -3, -2, 0, -3, 3
1491432626374,-2, -3, -3, 1, 0, 1, -5, -1
1491432626381,1, -2, -1, -1, -1, -2, 1, 3
1491432626391,-1, -2, -2, -2, -2, 1, -5, -3
1491432626403,-7, -1, -1, 1, 0, -5, -7, -16
1491432626404,-1, -3, -2, 0, 0, -4, -2, -1
1491432626412,1, -1, 0, 0, -3, -2, -1, 0
1491432626421,-3, 0, 0, 0, -1, -3, -1, -3
1491432626434,-2, 1, -1, 0, 2, 3, 1, -1
1491432626441,-1, 1, -1, -1, 0, 1, 2, -1
1491432626450,1, 2, -1, -2, -3, 2, 0, 0
1491432626451,1, -1, 1, -1, -2, -2, 0, 2
1491432626464,-5, -5, 1, -2, -2, 0, -4, -1
1491432626473,-2, -2, 0, -1, 2, 3, -2, 1
1491432626480,-1, -2, -2, -2, -3, -1, 5, 3
1491432626494,-1, -1, -2, 0, -4, -2, -1, -1
1491432626501,-3, -3, -1, -2, 2, 6, 1, -2
1491432626510,-1, 0, -1, 0, -2, -5, -3, -1
1491432626523,-1, -1, 0, 0, 2, -2, -2, -1
1491432626532,-1, -5, -4, -4, 0, 1, 2, -2
1491432626539,-1, -1, 0, 2, 1, -5, 0, -1
1491432626555,-2, -1, -1, -1, -4, 2, 6, 0
1491432626564,2, -3, -4, -3, -3, -2, -3, 2
1491432626569,-2, -2, 0, 0, -3, -4, -3, -6
1491432626584,-1, 2, -1, -3, -3, -2, -4, -3
1491432626592,1, -1, 0, 0, 0, -2, -5, 2
1491432626599,-2, -2, -1, 1, 0, -1, 0, 0
1491432626616,-1, -1, 1, -1, 1, 1, 7, 1
1491432626621,2, 1, -3, -3, 1, -2, 2, 0
1491432626629,3, 3, -1, 0, -2, -2, 3, -2
1491432626644,-4, -2, 1, 0, -2, 0, 3, -7
1491432626654,-5, -1, -3, 0, 0, 0, -5, -2
1491432626659,0, 0, 0, -3, 0, 0, -1, 1
1491432626681,-3, -5, -3, -1, 0, -1, -1, 3
1491432626682,-3, 0, -1, -2, -1, -2, -4, -3
1491432626689,1, 1, -1, -1, -3, 0, -1, -5
1491432626704,-1, 0, 0, -1, -2, 1, -3, 1
1491432626711,-2, -4, -4, 1, 6, -2, -3, 1
1491432626719,1, 1, -3, 0, 0, 1, -2, -2
1491432626734,0, -4, 1, -2, -3, 22, -2, -1
1491432626741,0, -3, 1, 2, 1, 4, 4, 0
1491432626749,-4, 0, -1, -1, 2, -4, 1, -3
1491432626763,-1, 1, -1, -1, -1, -5, 0, -3
1491432626764,1, 1, -2, 1, -4, -2, 0, -1
1491432626772,1, -2, 1, -4, -2, -7, -4, -3
1491432626780,0, 2, -2, 0, 6, 5, 8, 3
1491432626795,0, 2, -4, 0, -1, 2, -2, 0
1491432626801,-1, 0, -4, -2, -3, -8, -9, 1
1491432626810,-1, -3, -2, -1, 1, 12, 6, 2
1491432626811,2, 0, 0, 1, 0, -2, 3, 2
1491432626824,1, -4, 0, -4, -6, 2, 1, -1
1491432626832,-1, -2, -2, -4, 0, -13, -4, -11
1491432626839,-3, -3, -2, -1, -1, -1, 3, 1
1491432626854,0, -1, 0, -5, -3, -2, -2, 6
1491432626869,-3, -3, -3, -1, 1, 10, -6, 1
1491432626871,-1, -2, -5, -2, 0, -1, -7, -2
1491432626883,-1, 0, -2, -7, -8, -1, 5, 3
1491432626884,2, -3, 1, 3, 0, 1, -2, 0
1491432626892,-1, -1, -1, -8, -10, -12, -1, 0
1491432626899,-2, -4, 0, 6, 3, 3, 2, -4
1491432626914,-1, 2, -2, -1, 3, 8, 13, 1
1491432626921,-2, 0, -2, -8, -2, -7, -3, -9
1491432626930,-1, -1, 1, 3, -1, -1, 5, 3
1491432626943,-5, -2, 0, 1, 12, 4, 1, -6
1491432626944,-3, -1, -3, -4, -6, 5, -5, 2
1491432626952,1, -1, -1, -1, -3, -8, -12, -3
1491432626966,0, -3, -1, 2, -5, -5, 11, 1
1491432626974,-1, 2, 2, 4, -2, 5, 2, -1
1491432626981,0, 5, 3, 0, 0, -5, -8, -1
1491432626997,0, -1, 2, 1, 2, -2, 6, 2
1491432627003,-3, -2, -4, -4, -5, -3, -2, 0
1491432627004,-1, 1, 1, -1, 8, 1, 4, 0
1491432627012,0, -2, -1, 2, -3, -1, -3, -3
1491432627026,-2, -6, -2, -2, -2, 1, 6, 0
1491432627035,-6, 1, 2, 6, 8, 16, -7, -3
1491432627045,10, -1, -2, -3, -3, -13, -8, -2
1491432627057,-2, -2, -4, -4, -5, -7, 3, 5
1491432627064,24, -1, 1, 0, -1, -6, -28, -5
1491432627072,20, -2, 0, 1, -2, 2, -10, -1
1491432627087,-11, -3, -3, -2, -4, -14, -16, -3
1491432627094,-9, 1, -1, 0, 0, -5, 1, 0
1491432627110,6, 1, 1, 0, -3, 2, 8, 4
1491432627117,-13, -4, -3, -2, 1, -4, 1, -7
1491432627124,14, 1, -1, -2, -6, -16, 6, 2
1491432627125,-28, -1, 3, 1, 7, 13, -7, 2
1491432627131,13, 0, -2, -1, -2, -1, 12, 1
1491432627147,-15, -21, -10, -4, -4, 4, -20, -8
1491432627148,12, 37, 10, -1, -4, -3, 15, 6
1491432627155,-16, -10, -8, -4, 1, 0, -3, -1
1491432627170,-31, -17, -9, -2, -1, -6, -5, 1
1491432627177,16, 1, 2, 2, -1, -1, -18, -2
1491432627185,2, -10, 0, -1, -2, -1, -20, -2
1491432627192,-32, -3, -2, 3, 1, -2, 0, 3
1491432627207,-11, -5, -6, -2, -1, 4, 13, -6
1491432627214,11, 1, 4, 0, -2, 5, 6, 0
1491432627230,8, 1, 0, 0, -3, -9, 19, -4
1491432627237,12, 1, -1, -2, -18, -11, -3, -6
1491432627245,13, -2, 1, 2, 4, -2, 27, 4
1491432627251,-9, -4, -1, -3, 7, 4, 11, -1
1491432627267,2, -9, -7, -1, -2, 0, -4, -3
1491432627274,-1, 2, 0, -2, -2, -4, -6, -1
1491432627290,-19, -2, -2, -9, 0, -19, -32, -6
1491432627296,1, 1, -1, 5, -4, 8, 26, -9
1491432627297,-2, -9, -3, 5, 4, 3, -14, 1
1491432627311,13, -1, 0, 0, -3, 7, -9, 4
1491432627312,-16, -4, -1, -1, -5, -6, 11, -12
1491432627314,-8, -3, -7, -6, -4, -5, 1, 6
1491432627327,-13, -4, 0, 0, 1, -6, -16, -12
1491432627328,3, 15, 0, 0, 1, 2, 21, -1
1491432627334,17, 5, 2, 1, 6, 4, 19, 12
1491432627350,0, -5, -2, -2, -3, -3, -9, -8
1491432627357,3, 2, 1, 0, 3, -1, 2, 1
1491432627365,-10, 2, 2, 2, 2, -3, -12, -19
1491432627366,1, -4, -4, 2, -1, 7, 3, -15
1491432627372,10, -3, 1, -2, -2, -2, -8, -4
1491432627387,9, -2, -3, -1, -4, 9, 1, 11
1491432627394,4, 4, -3, 1, -4, -7, -7, -7
1491432627416,-4, -5, 1, 0, -1, 0, 5, 3
1491432627417,-3, -6, -1, -3, -5, -4, 37, 2
1491432627425,-8, -3, -1, 0, -1, -3, -2, -17
1491432627433,-20, -2, -1, 1, 1, 3, 2, -5
1491432627447,0, 6, 3, -2, 1, -3, 12, 6
1491432627454,-1, -5, -4, 0, 9, 4, -3, -15
1491432627470,-6, -15, -6, 0, -3, -4, -31, -18
1491432627476,3, 16, 12, 4, -1, 1, 20, 12
1491432627477,-2, 1, -2, 0, 1, 3, 10, 7
1491432627486,-4, -19, -8, -3, 1, -3, -57, 8
1491432627492,4, 1, 8, 2, -3, -6, -7, 17
1491432627507,1, 2, -2, 0, -3, 0, 5, 0
1491432627515,-2, -8, -5, -1, -5, -1, -11, -1
1491432627531,0, 7, 6, 2, 2, 4, 17, 7
1491432627537,0, -7, -4, -3, 0, 1, 5, 3
1491432627540,-3, -2, -1, -3, 1, 0, -11, -7
1491432627544,0, -9, -5, -3, -3, -1, -15, -1
1491432627545,0, 4, -2, -3, -2, -2, 41, 7
1491432627552,0, -6, -1, 2, 0, -6, -50, -16
1491432627553,0, 0, -4, -3, -3, -4, 3, 6
1491432627571,-3, 1, 0, 1, 0, 2, 1, 5
1491432627576,-10, 10, 8, 0, -2, -8, -55, -2
1491432627594,5, 3, 3, 0, 3, 1, 4, 12
1491432627599,-1, -7, -4, 0, 0, -1, -1, -14
1491432627605,-6, -3, -8, -1, -4, -3, -8, -13
1491432627612,6, 13, 6, 2, -1, 1, 2, -4
1491432627627,-1, -9, -5, 0, 4, 7, 21, -3
1491432627635,-1, 0, -3, 0, -1, 1, -2, -11
1491432627651,1, 0, 6, -1, -5, -7, -12, 3
1491432627657,-4, -10, -5, -2, -1, -2, 2, -7
1491432627665,-11, 3, -1, -2, 1, 2, 25, -32
1491432627672,2, 7, 5, 5, 0, 2, 13, -6
1491432627688,-1, -5, -4, -1, 0, -1, 11, 25
1491432627694,-22, -8, -5, -1, -1, 0, 2, 1
1491432627710,4, 1, 1, -1, -2, -4, -14, 8
1491432627716,-7, -3, -2, 0, 0, -1, 7, -9
1491432627717,5, -4, -5, -3, -3, -2, -6, 5
1491432627725,0, 0, 0, -2, -3, 1, -7, -2
1491432627732,2, 1, 0, -1, -1, 1, -3, -2
1491432627748,8, 13, 3, 3, -3, 0, -10, 0
1491432627755,1, -3, -2, 2, 1, 1, 10, 10
1491432627770,-26, 5, 6, 2, 0, -6, -11, -2
1491432627777,-4, -5, -4, -3, -1, 3, -3, -1
1491432627786,6, -1, -1, 1, 3, -1, -3, -6
1491432627793,5, 6, 3, -2, -4, -1, -3, 0
1491432627808,4, 9, -2, -3, 0, 0, 5, 3
1491432627814,6, 11, 16, -1, 0, -3, 4, 8
1491432627830,0, -5, 0, -3, -1, 5, -2, -1
1491432627838,-19, 2, -4, -3, -1, 0, -1, -3
1491432627846,-4, -5, -6, -3, -4, -5, -4, 5
1491432627852,2, -9, -9, 1, -1, -9, -6, -9
1491432627867,-1, -28, -6, -3, -3, 0, 0, -5
1491432627875,-8, -14, -6, -1, 0, 3, 5, 14
1491432627891,9, -25, -4, -2, -10, -4, 1, 1
1491432627897,7, 9, 7, 3, 6, 3, -5, -6
1491432627905,23, -2, -2, 2, 8, 1, 2, 3
1491432627919,39, 10, -7, -1, -5, -4, -6, -5
1491432627927,-15, 0, -3, -1, -1, -4, -3, -4
1491432627934,-17, -15, -5, -2, 1, 0, 4, 1
1491432627950,18, 26, 4, 1, 1, -1, -1, -1
1491432627958,-16, 4, 7, -1, -4, -3, -2, -7
1491432627965,-13, 19, 1, 0, -2, -2, -2, -2
1491432627979,-6, -25, -7, 3, 3, 2, 3, 4
1491432627980,21, -6, -4, -4, -4, 0, -2, 0
1491432627987,-8, -10, -4, -3, 2, 3, -3, -6
1491432627995,-24, -16, 1, 2, 2, 0, 1, 0
1491432628010,6, 10, -3, -1, -2, -3, 1, -2
1491432628016,5, -18, -6, -3, -1, 0, -1, -4
1491432628017,7, 8, 9, -3, -1, 1, 1, -1
1491432628025,-9, -8, 2, 10, 2, 1, -1, 1
1491432628039,-5, 3, -3, -4, -2, -2, -3, -5
1491432628040,-3, -6, -13, -4, -3, -1, 0, 0
1491432628047,4, 8, 8, 0, -2, 0, 0, 5
1491432628054,45, 15, 14, 0, 1, 1, -1, 3
1491432628070,-2, -1, 1, 0, 2, 1, 0, -3
1491432628077,-26, -18, -8, -3, -1, -1, -1, -5
1491432628084,3, -9, -2, 0, -3, -4, -1, -1
1491432628085,3, -2, -4, -3, 0, 1, 0, 0
1491432628099,-9, -5, -8, 0, 1, -1, -1, -4
1491432628108,-25, -13, 0, -2, -3, -2, 0, -4
1491432628114,-3, 7, -5, 0, -6, -1, -2, 2
1491432628129,-21, -12, -9, -2, -1, 0, 3, -1
1491432628130,31, -4, -1, -2, 0, -2, -1, 1
1491432628136,17, -3, -1, 0, 4, 2, 3, 5
1491432628153,9, 2, 0, -4, 0, -2, -1, -3
1491432628159,-5, 1, -1, -1, -2, 0, 0, -2
1491432628174,1, 7, 4, -13, -2, -1, -1, 4
1491432628175,-12, -11, -8, -4, -4, -2, -2, -2
1491432628190,-26, -15, -7, -1, -1, -4, -4, -6
1491432628197,-2, 1, 3, 8, 7, 2, -1, 1
1491432628205,-4, -5, -6, -10, -6, 0, 1, 1
1491432628219,-14, -6, -4, 1, -2, -2, 0, -5
1491432628227,3, 21, 1, 5, -2, 0, -3, -2
1491432628234,-7, -24, -6, -3, -1, -3, 0, -2
1491432628250,-35, -11, -2, 1, 1, 1, 1, -1
1491432628257,-5, -7, -4, -3, -3, -1, 0, -4
1491432628264,-4, -7, 0, 6, 3, -1, -1, -1
1491432628279,9, 13, 4, -2, 0, 1, 2, 0
1491432628288,-12, 0, 3, 9, 4, 2, 2, -4
1491432628294,14, 8, 4, 2, 2, -2, -1, -1
1491432628309,13, 6, -4, -2, 4, 2, -1, 3
1491432628310,-33, -6, 6, 0, 2, -1, -1, -7
1491432628316,-15, -1, -4, -3, -5, -1, -2, -1
1491432628327,7, -14, -7, -4, -7, 0, -1, 5
1491432628339,-20, -4, -3, 0, -1, -1, -4, -7
1491432628347,-2, 7, 10, 0, -5, -1, -3, -6
1491432628354,19, -10, -3, 1, 0, -1, 1, 5
1491432628370,45, 16, -2, 0, 1, -2, -1, 1
1491432628377,13, 18, 8, 3, 4, -1, -1, -1
1491432628384,-1, -8, -3, 2, 0, -1, -2, -3
1491432628385,-6, -2, -9, -1, -3, -1, -1, 3
1491432628399,-5, -3, -3, -4, -5, -2, 1, 2
1491432628407,61, -3, -6, -3, 0, -5, -2, 5
1491432628415,34, -10, -5, -2, 1, 1, 0, 3
1491432628430,-16, -12, -2, -3, -5, 0, -2, -3
1491432628436,-10, 0, 4, 0, 2, 4, 1, -2
1491432628444,-14, -9, -9, -2, 2, 1, -1, -1
1491432628445,9, 0, -4, -3, -1, -1, -3, -1
1491432628459,4, -15, -8, -2, 0, -3, -1, -4
1491432628460,-5, -4, 2, 0, -1, -4, -1, -5
1491432628467,-12, -5, -4, 1, -1, -3, 0, -2
1491432628474,1, 0, -4, -2, -5, -1, -2, -2
1491432628491,-12, 1, 1, -9, -3, 1, 2, 2
1491432628498,-16, -1, -1, -1, 1, 0, 0, 1
1491432628504,8, 1, 1, -8, -1, -1, -3, -1
1491432628505,-19, 1, 5, 7, 3, 2, -1, -1
1491432628519,-9, 1, -2, 1, -1, -2, -3, -3
1491432628527,0, 1, 3, 0, 0, -1, 0, -3
1491432628534,-5, 2, 1, 0, 0, -2, 1, 0
1491432628550,17, -1, 1, 16, 6, -2, 0, 3
1491432628556,28, -9, -3, -5, -6, -3, -1, 3
1491432628564,-15, 36, 13, 0, 2, 1, 0, -3
1491432628565,11, 0, -3, -4, -2, -1, 0, -3
1491432628579,-15, -1, -2, -2, 1, 0, -1, -3
1491432628587,4, 4, -2, -2, 1, 0, -1, 4
1491432628594,-3, -1, -3, -2, -1, -1, -1, 0
1491432628612,-12, -1, -1, -2, -2, 0, -2, -6
1491432628616,1, -3, 1, -2, 0, 0, 1, -1
1491432628617,-2, 2, -2, 0, 1, 0, 0, -1
1491432628625,-10, -19, -5, -6, -7, -6, -2, -2
1491432628639,18, 13, -2, -1, -1, -3, -2, 4
1491432628640,2, 2, 2, 1, 0, -4, -2, -2
1491432628647,27, -11, -2, -4, -2, 1, 3, 3
1491432628654,-5, -6, -1, -2, 1, 0, -4, -5
1491432628671,13, 6, -2, -4, -1, -1, 0, 0
1491432628676,-11, -5, 7, -1, -4, -1, 0, 0
1491432628677,31, 2, -5, -1, -1, 1, -1, -1
1491432628684,-5, 2, 5, 1, 7, 3, 1, -1
1491432628685,2, 12, 1, -1, 1, 1, 0, 1
1491432628699,-14, -10, 0, 0, -4, -2, 1, -1
1491432628708,11, 8, 2, 1, 2, 1, 1, 3
1491432628714,3, 8, 0, -2, -1, 3, -1, 2
1491432628730,-19, -8, 2, 2, -2, -2, -2, -1
1491432628736,-9, -2, -4, 0, -2, -2, 1, 4
1491432628744,25, 3, 3, 0, -5, -3, -1, 3
1491432628745,-45, -4, -2, 0, 3, -2, 0, -1
1491432628759,0, 4, -1, 3, 3, 0, 3, 1
1491432628773,18, 6, 0, 9, 4, -3, -3, 0
1491432628774,-29, -7, -5, -6, -5, -6, -3, -17
1491432628792,-2, -5, -7, -8, -4, -1, 1, 8
1491432628797,-10, 1, 3, 0, -3, 1, -4, 0
1491432628812,7, -1, -3, -4, -2, 5, -1, 10
1491432628819,-11, 4, 0, -2, -2, 1, -1, -5
1491432628827,4, 14, 8, 2, 1, -1, -3, -12
1491432628842,3, 2, -1, 0, 1, 2, -2, 0
1491432628851,-11, -10, -3, -2, 0, -2, -2, -8
1491432628856,0, -33, -8, -5, -4, -4, -1, -6
1491432628879,-6, -14, -4, -1, -2, -4, 0, 1
1491432628880,3, -9, -3, 0, 5, 3, 2, 5
1491432628887,10, 6, 2, 0, 1, 0, 2, -2
1491432628902,18, 1, 0, -1, -2, 0, 0, 7
1491432628912,2, 33, 21, 3, 2, 0, 0, 17
1491432628917,-9, -19, -11, -3, 0, -2, -2, -19
1491432628918,-10, -7, -1, 1, -5, -3, 3, 7
1491432628931,-9, -18, -11, -4, -4, -2, -3, -6
1491432628939,4, 6, 1, 0, 4, 0, -2, -6
1491432628947,-2, -1, -5, -2, -4, -4, -2, -12
1491432628963,-2, 10, 1, 3, 2, 1, -3, 1
1491432628969,4, -8, -2, -2, -4, -4, 0, -1
1491432628970,-1, -5, -4, 1, -2, 2, 0, -1
1491432628976,-3, 9, -3, -2, -2, -4, -3, -2
1491432628999,-2, -9, -2, 0, -1, -3, -2, -4
1491432629000,0, 4, 3, -1, -1, -1, -5, 7
1491432629007,-10, -7, -7, -1, 5, 0, -5, 5
1491432629022,2, 4, 0, -3, -4, 0, 1, -6
1491432629029,0, -4, -3, 1, -2, -1, -5, -4
1491432629030,1, 6, 8, 2, -2, 2, 7, 9
1491432629036,-3, 2, -2, -2, -3, -2, -6, -10
1491432629037,6, 2, 2, 1, 1, -6, 3, 0
1491432629051,-24, -10, -4, 1, -3, 0, -1, 2
1491432629052,2, -7, -4, -4, -1, 1, 1, -8
1491432629059,32, 6, 0, 0, -1, 3, 3, -1
1491432629067,-7, -6, -5, 0, 0, -1, -2, -8
1491432629082,-8, -10, -5, -3, -2, 0, 0, 9
1491432629090,-1, 1, 1, 0, 1, -2, -2, -12
1491432629096,11, 24, 15, 1, -3, -1, 3, 4
1491432629097,-14, -21, -3, 0, 0, -2, 1, -2
1491432629111,-13, -5, -5, -2, -3, 0, -1, 0
1491432629119,-15, -2, -1, -2, -2, -1, -3, -5
1491432629128,-6, -1, 0, -4, -4, 0, -1, 2
1491432629142,0, 1, 0, 0, -1, 0, -1, -2
1491432629150,2, -9, -9, -3, -2, -1, -1, -1
1491432629156,7, -2, -3, 1, -1, -3, -7, -6
1491432629171,-12, -1, 0, -2, -3, 1, 1, -1
1491432629172,20, 2, 1, 0, 1, -1, -1, -2
1491432629179,-20, 7, 2, 1, -1, 0, 1, -4
1491432629187,-5, -5, -1, -3, -4, -1, -3, 2
1491432629202,-4, -5, -4, 1, 0, -3, 3, -6
1491432629203,8, 5, 3, 1, 1, -2, -5, 1
1491432629211,5, 12, 8, -1, 0, -1, 0, 3
1491432629217,7, 22, 11, 3, 0, -1, 2, -1
1491432629231,-4, -6, -6, -1, -1, -2, -1, -1
1491432629239,-4, -4, 0, -5, -2, 0, -2, -2
1491432629247,22, 0, 1, 1, 0, 1, 1, -2
1491432629261,11, -3, -3, -2, -3, 0, -2, -3
1491432629262,-22, -3, -1, -2, 0, 2, -1, -4
1491432629276,-2, -9, -9, -4, -5, -4, -4, 0
1491432629278,11, -2, -6, -2, -1, -2, -2, 2
1491432629291,1, -3, 1, 1, 2, -4, -2, -5
1491432629292,-9, -5, -2, 0, 0, -1, -3, 1
1491432629299,-22, -11, -6, -3, -2, 0, 1, 3
1491432629307,-8, 4, 2, 0, 0, -3, 2, 2
1491432629321,0, 1, -7, -4, -3, 3, 3, 7
1491432629331,-5, 11, 6, 1, 0, 2, -6, 2
1491432629332,4, 7, -2, -3, 0, 1, 0, -3
1491432629338,7, 12, 1, 2, 1, -3, -1, -5
1491432629351,4, -3, -1, 1, -3, 0, -1, -12
1491432629359,11, 11, 6, 1, -1, -1, -4, 6
1491432629367,-5, 0, 0, -2, 0, -3, 2, -1
1491432629382,11, -8, -3, -1, 0, -3, -2, 0
1491432629383,-6, -10, -4, -4, 1, -1, -1, -1
1491432629396,16, -3, -3, 1, 1, 0, -1, 3
1491432629397,5, -4, 4, 1, 0, 0, -2, 8
1491432629412,-15, -19, -6, 0, -2, 1, 1, -4
1491432629426,12, -2, -2, 1, 3, -1, 2, -2
1491432629427,25, 2, 2, 1, 3, -1, -3, 12
1491432629441,10, -5, -2, -1, 1, 0, 3, 6
1491432629442,-20, -3, -2, 1, 0, -2, -2, -7
1491432629450,-17, 21, 7, 0, 0, 1, -1, -1
1491432629456,2, -2, 4, 2, 2, 0, 6, 17
1491432629457,14, -4, -3, -4, -3, -2, -6, -4
1491432629472,12, -4, 5, -1, -5, 1, 3, 18
1491432629479,70, -3, 0, 1, 0, 2, 4, 1
1491432629487,-27, 4, 5, 2, -5, -1, 2, 7
1491432629502,-14, -12, -9, -4, -3, -8, 1, -5
1491432629510,8, -8, -7, 1, 2, -2, 1, 4
1491432629516,-33, 2, 3, 0, 3, 5, 1, -7
1491432629531,-45, -15, -9, -2, 0, -4, -2, -11
1491432629539,4, -1, -4, -1, -2, 0, -3, 0
1491432629548,23, -2, -4, -2, -1, 1, 6, 4
1491432629562,-11, 17, 8, 4, 7, 7, -2, -24
1491432629571,-1, 2, -1, -4, -4, -9, -6, -6
1491432629576,-10, -7, -2, -2, -2, -16, -5, 3
1491432629591,-15, -2, -2, 2, 3, 3, -6, -13
1491432629599,-30, -4, -2, -3, -6, 3, -1, 3
1491432629608,6, -4, -2, -2, -3, -4, -3, -3
1491432629622,11, 1, 0, -2, 1, -5, -1, 2
1491432629623,-40, -4, 0, 9, 0, -4, -2, 14
1491432629630,-19, 2, -3, -4, -6, -11, -3, -19
1491432629637,27, -3, -4, -7, 0, 11, -16, 7
1491432629651,7, -6, -2, 0, 1, 5, 3, 2
1491432629659,0, 0, 0, -2, -2, -8, 5, -20
1491432629667,-20, 4, 4, -7, -3, 14, -6, -15
1491432629682,-13, -5, 0, -4, 1, 5, 12, -7
1491432629689,-3, -1, 1, -3, -1, -8, -4, -1
1491432629696,-4, -3, -5, -4, -3, -1, -9, 9
1491432629712,-21, 1, -1, -5, -5, -2, 10, 13
1491432629719,-7, -1, 0, 2, 1, -4, -6, -10
1491432629727,-1, -8, -7, -4, 0, 5, 15, 2
1491432629742,29, 2, -4, 2, 1, 1, 15, 8
1491432629750,-1, -8, -3, 2, 2, -5, 3, -8
1491432629763,-5, -1, -2, -6, -3, 0, 1, -1
1491432629764,15, -2, -3, -6, -3, -6, -5, -15
1491432629772,31, 2, -4, 1, -4, -9, -4, 1
1491432629779,-22, 32, 17, 4, -1, 5, -2, -7
1491432629794,-47, 4, 7, 5, 4, 4, -5, 1
1491432629802,23, -21, -8, -7, -15, -7, 7, 13
1491432629811,3, 8, 2, -5, -2, -1, -8, -17
1491432629823,-18, -1, -5, 0, 5, 2, 5, -4
1491432629832,12, -5, -2, 4, 3, 3, 6, 3
1491432629841,-26, 0, 1, 1, 5, 0, 11, -1
1491432629854,-49, -8, -1, 0, 3, 6, 2, -3
1491432629861,15, -5, 1, 0, -1, 3, 1, 4
1491432629871,-17, 5, 0, 1, 6, -3, -4, 2
1491432629872,24, 0, 1, -2, -3, 3, -3, 9
1491432629883,5, -10, -6, 1, 0, -1, -15, -12
1491432629892,-4, -1, 4, 3, 2, 1, 11, 7
1491432629899,11, -3, 3, 13, 3, -1, -6, -2
1491432629914,-1, -1, -3, -3, -4, -6, 3, -9
1491432629922,-56, -11, -9, -8, -7, -6, -7, -8
1491432629930,32, -4, 1, 7, 0, 1, -5, 4
1491432629943,7, -8, -2, -7, -1, 6, 8, 5
1491432629951,2, -7, -6, -6, 0, 0, -6, 10
1491432629959,2, -3, 7, 5, 2, -1, -3, -3
1491432629974,10, 2, 3, 1, 1, 0, 3, 5
1491432629982,26, 6, 0, -7, 0, -2, 3, 11
1491432629990,20, -2, -3, -3, -3, 0, -24, -6
1491432630006,28, 9, 1, 3, 2, 3, 20, 15
1491432630012,29, 1, -2, 3, 0, 0, -5, -16
1491432630019,-9, 0, -3, -5, -5, -6, -9, -11
1491432630034,-8, 3, -2, -4, -1, 2, 11, 15
1491432630041,-16, 0, 3, 5, 4, 8, 0, -8
1491432630042,4, -3, -3, -1, -4, -4, -11, -7
1491432630050,-8, 9, 0, 2, 3, 2, 0, 1
1491432630063,-9, -12, -2, -1, 0, 2, -5, -11
1491432630064,23, -1, -2, 0, 1, -2, -8, -8
1491432630071,4, 6, 5, 2, 1, 0, 4, 7
1491432630079,-17, -9, -2, -4, 0, 3, -13, 1
1491432630094,7, 12, 0, 5, 5, 1, 12, -11
1491432630102,5, 3, 0, 2, 3, -1, -6, -7
1491432630111,-7, -26, -7, -4, -4, -3, -10, 20
1491432630123,4, -3, -9, -2, -3, 0, -2, -5
1491432630131,-7, -8, 1, -2, 0, 1, 3, -4
1491432630139,-17, 28, 7, 0, -2, -3, -2, 0
1491432630154,12, -4, -1, -2, -2, -5, -10, -1
1491432630162,4, -1, 0, 1, 1, 1, 6, 7
1491432630170,1, -2, -4, -3, -5, -2, 10, -9
1491432630184,16, 1, -1, -7, -10, -7, -10, -6
1491432630192,-19, 33, 1, -2, -2, -4, 2, 9
1491432630199,-2, -7, 4, 2, 5, 1, 18, 24
1491432630214,17, -16, -4, 2, -1, -7, -19, -5
1491432630222,-4, 11, 10, 0, -3, -1, 0, 4
1491432630229,-16, -11, -8, -4, 0, 1, -6, -14
1491432630230,9, -13, -6, -4, 3, -2, -1, 0
1491432630243,-16, -23, -11, -5, -3, -3, -9, -4
1491432630251,25, 15, 5, 1, -2, -2, 12, 5
1491432630252,-9, 12, 6, 2, 1, -2, -15, -8
1491432630260,14, -23, -8, -4, -6, -5, -6, 5
1491432630261,-12, -2, -5, 0, -2, -1, 5, 4
1491432630274,5, 14, -7, -4, -1, -1, -3, -14
1491432630281,1, 21, 12, 1, 1, 4, 7, 0
1491432630282,-7, 2, 6, -3, -2, -2, -3, -6
1491432630293,-17, -13, 1, 2, -2, -1, 0, -24
1491432630304,6, -4, -4, 1, -1, 3, 2, -2
1491432630312,-11, -15, -5, -2, -3, 3, 4, 2
1491432630319,8, -23, -5, 0, 0, -4, 0, -1
1491432630341,-17, -22, -7, 3, 2, -4, -13, 4
1491432630342,-4, -24, -10, -2, 3, 0, -8, 0
1491432630350,8, 3, 2, -1, -3, -1, -3, -2
1491432630363,-14, -8, 1, 1, -2, 2, -4, -1
1491432630364,-11, 2, 0, 2, 3, 1, 3, -3
1491432630372,-16, -7, -6, -5, -5, -5, -6, -8
1491432630380,2, 23, 2, 1, -3, 3, 12, 2
1491432630394,13, -2, -2, 1, 1, 4, 12, 3
1491432630401,1, 4, -1, -2, 1, -4, -7, -3
1491432630410,3, -6, -4, -3, -1, -2, -3, 2
1491432630424,-7, -4, 2, 0, 1, -1, 1, 1
1491432630432,-4, -6, 2, 1, -1, -5, 5, -1
1491432630439,1, -29, -6, -3, -2, -2, 4, -5
1491432630454,-4, -19, 1, 1, 1, 5, -1, 9
1491432630462,-2, -13, -5, 0, -3, -2, -6, 1
1491432630470,8, 2, 4, 0, -2, 1, 1, -2
1491432630471,-2, 8, 3, -3, -2, -2, -6, -3
1491432630484,-10, -5, 0, -3, -2, -2, -3, -5
1491432630491,-8, -12, -4, 5, 5, 1, -4, 1
1491432630492,6, 10, 0, 0, 1, 0, 6, 5
1491432630499,3, 11, 4, 5, 3, -4, -4, -2
1491432630514,27, -8, -9, -10, -6, -3, -3, 3
1491432630529,36, 2, 7, -2, -4, -3, 1, 34
1491432630531,-21, 2, -2, 1, 2, 1, 6, 1
1491432630545,-9, 3, -7, 6, 0, 4, -1, -15
1491432630551,-7, -28, -5, 4, 0, 2, -1, 4
1491432630552,-9, 8, 7, 2, -1, 0, -11, -7
1491432630560,1, 2, -4, -4, -3, -1, 1, 0
1491432630574,-2, 36, 4, 7, 5, 0, 2, -12
1491432630583,4, -6, -5, 1, -5, -9, -3, -5
1491432630590,-15, -11, 0, -4, -1, -4, -2, 7
1491432630603,-10, -12, -14, -3, -2, -2, -5, -15
1491432630604,3, 1, -2, -4, 1, 3, 6, 0
1491432630611,-13, -27, -10, -5, -2, 3, -4, -5
1491432630612,16, 29, 14, 14, 3, 1, 1, 2
1491432630619,-3, 10, 5, 1, 1, 0, 1, -3
1491432630635,-3, -17, -4, -3, -3, -6, -3, -6
1491432630650,-8, 0, -1, -9, -4, -1, -1, -6
1491432630651,14, -21, -16, -3, 2, 2, 2, 7
1491432630663,-5, -6, -6, -7, 1, 4, -2, 1
1491432630681,3, -12, -2, -4, -4, -2, -3, -3
1491432630686,0, 11, 0, 4, 0, 0, -1, -2
1491432630694,3, 1, -1, 3, 3, 1, 10, -3
1491432630708,2, -7, -3, 1, -1, -1, -9, 2
1491432630709,-10, -3, 3, -2, 0, -4, -2, -13
1491432630716,17, -14, -4, -3, -4, -4, -6, -2
1491432630731,-32, -22, -8, -10, -3, 1, -3, -5
1491432630732,-12, 0, 1, 6, 3, 2, 3, -2
1491432630746,15, 21, 4, 4, -1, -2, -3, 2
1491432630755,-20, 8, -4, -10, -5, 2, -3, 1
1491432630761,17, 0, 1, 1, -2, 2, -3, -3
1491432630762,-1, 5, 9, 4, 1, -2, 6, 7
1491432630776,12, -18, -4, -9, -3, 3, 0, 6
1491432630785,-6, 3, -5, 1, 4, 2, 2, -4
1491432630792,-1, -2, -3, 1, 1, -1, 2, 2
1491432630807,-6, 26, 10, 15, 7, 2, -5, -7
1491432630814,-7, -1, -4, -8, -5, -4, -1, -4
1491432630821,5, 0, 0, -2, 1, -2, -4, 2
1491432630837,-8, 4, -1, -2, -2, -1, -1, -2
1491432630845,-2, -17, -5, -5, -6, 0, 7, -7
1491432630859,3, 17, 3, -2, 0, 0, 5, -3
1491432630866,17, -8, -11, -10, -1, -1, -2, 2
1491432630874,3, 34, 15, 10, 5, 0, -2, -5
1491432630881,0, 9, 6, 3, 1, -4, 1, 4
1491432630897,-3, -10, 0, 2, -4, -4, -5, 9
1491432630904,8, -13, -4, 17, -2, -1, -2, 10
1491432630913,-5, 9, 5, -2, -1, -1, -5, 5
1491432630926,-2, -11, -2, 1, -2, -1, 5, -10
1491432630934,-7, -7, -1, 1, -1, -2, 6, -6
1491432630941,-6, 0, 4, 0, 2, 0, -7, -8
1491432630942,-2, -11, -4, -2, 3, 1, -4, 11
1491432630963,-19, 8, 3, 1, 3, -2, 2, -14
1491432630964,-4, 2, 4, 4, -3, 1, 0, -8
1491432630965,3, 3, 3, -8, -5, -7, -7, -1
1491432630972,18, 3, -2, -2, -3, 2, 2, -3
1491432630986,0, 4, 4, -2, -2, -2, -2, -4
1491432630994,-8, -15, -9, 3, 3, 3, 2, 9
1491432631001,-22, 12, -5, -9, -5, 2, -4, -14
1491432631016,-17, 1, 2, 13, 4, 4, 1, -5
1491432631024,2, -12, -10, -7, -1, 0, 8, 11
1491432631032,-4, -3, 0, -4, 2, -2, -3, -15
1491432631046,-6, -2, 2, 1, 3, 2, 2, -1
1491432631054,8, 2, 9, 3, 3, -4, -14, 2
1491432631062,4, 4, -3, 1, 2, 0, -10, 11
1491432631076,9, -4, 0, -3, 1, 1, 1, -3
1491432631084,10, -4, 4, 2, -2, -5, -4, -3
1491432631092,-9, -19, -9, -8, -3, -3, -3, -4
1491432631106,4, -2, -5, -2, -2, 0, 8, 15
1491432631114,11, -9, -4, 0, -5, 1, 3, 3
1491432631122,-9, -5, -4, 1, -1, 3, 4, -5
1491432631136,8, 3, 5, 6, 3, -3, -4, 9
1491432631137,-5, 14, 3, -1, 0, 0, 2, -1
1491432631144,1, -20, -15, -4, -6, 1, 1, 15
1491432631145,-4, 10, 6, 5, 6, 1, 1, -13
1491432631152,5, 1, 4, 37, 7, -1, -9, -5
1491432631174,13, -2, 1, -3, -3, -2, 1, 0
1491432631175,6, 49, 10, -15, -4, -3, 7, 3
1491432631182,6, -6, -1, 3, -3, 1, -7, 8
1491432631196,-16, -11, -6, -11, -4, -1, -5, -14
1491432631204,-19, -6, -9, -11, -4, -6, 0, -11
1491432631212,16, -4, 2, 5, 3, -4, -7, -3
1491432631226,7, 8, 3, -1, -2, -3, -7, -10
1491432631234,-18, -13, -3, -3, -1, -1, -4, -9
1491432631241,2, -2, -2, -2, -3, 0, -1, 8
1491432631258,0, 9, -1, -7, -3, -2, -2, -1
1491432631264,-4, -2, 0, 1, 1, 0, -10, -5
1491432631272,-3, -18, 7, 8, 2, 3, 8, 4
1491432631286,5, -2, -2, -2, 1, 1, 10, 4
1491432631294,2, -10, -10, -8, -5, -2, -2, 0
1491432631301,-14, 6, 6, 5, -1, 0, 0, -6
1491432631302,2, -6, 0, -6, 0, -1, 0, 1
1491432631316,6, 5, 5, 7, 5, -3, -2, -2
1491432631317,-7, 8, -4, -9, -6, -4, 4, 3
1491432631323,2, -1, -2, -2, -4, -2, -3, 2
1491432631331,1, -14, -8, 0, 0, -3, -1, 10
1491432631346,-2, -8, -8, -7, -5, -2, 2, -6
1491432631355,-1, -2, -1, -5, -2, 0, 6, -2
1491432631361,-2, -12, -6, -2, -4, 0, -16, 0
1491432631362,-1, -1, -2, 4, 0, 0, 0, -3
1491432631384,-3, -2, -3, 1, -1, 5, -3, 2
1491432631385,-3, -7, -1, 2, 2, -2, -4, -4
1491432631392,-2, -4, -2, -3, -3, -2, -1, -1
1491432631406,-1, 11, 4, 2, 1, -3, -4, -3
1491432631414,2, 3, -2, -2, 1, -2, -5, 2
1491432631421,3, 13, 7, 2, 4, 1, 0, 2
1491432631436,-3, -3, -2, -1, -2, 4, 3, -1
1491432631444,-7, 2, 0, 2, -4, 1, -4, -2
1491432631452,-2, -1, 0, -1, -1, -2, -12, -4
1491432631467,0, -5, 0, 9, 1, 2, 7, 0
1491432631474,-3, -1, -3, -4, -2, -2, 4, 1
1491432631482,-2, 2, 2, -7, -4, -3, -4, -3
1491432631496,-1, 6, 1, 2, 1, -1, -2, 1
1491432631504,-2, -12, -9, -8, -5, 2, 5, 2
1491432631515,4, 7, 7, 3, 0, 1, -2, -3
1491432631516,-1, -3, -2, -1, -1, -1, 1, -3
1491432631526,0, -10, -7, -2, -1, 1, 4, 1
1491432631534,-6, -5, 5, 0, 1, 1, -4, -2
1491432631542,-3, -7, -3, 1, -1, -3, 2, -3
1491432631556,-4, -6, -8, -1, -4, -1, 2, -4
1491432631564,2, -3, -1, -4, -1, -3, -4, 1
1491432631572,-1, -3, -4, -3, -1, -2, 1, 3
1491432631586,-4, 0, -5, -3, -2, 0, -3, -4
1491432631598,2, 1, 2, 1, -4, 1, 8, 7
1491432631609,3, -1, 0, -1, 1, -2, -1, 6
1491432631616,1, 11, 2, 1, 2, -1, 1, -4
1491432631624,0, 0, 2, -1, -2, 3, -1, -2
1491432631641,-6, -8, -4, 3, 2, -2, -2, -9
1491432631646,-2, -2, -2, -4, -3, -2, -5, -2
1491432631654,0, -1, -1, -12, -4, -2, -4, -2
1491432631668,-6, -1, 1, 3, 1, -2, -2, -1
1491432631682,0, 0, -2, -2, -2, 1, -2, -2
1491432631684,1, -1, 1, -4, -3, -2, 4, 2
1491432631699,-1, 4, 5, 4, 6, -2, -11, -8
1491432631706,7, -3, 0, 9, 0, -1, 1, 4
1491432631714,-7, -5, -4, -5, -5, -1, -2, -5
1491432631731,13, 9, -1, -2, -1, 1, -4, -2
1491432631737,0, -9, -4, 4, -1, -1, 0, 2
1491432631744,-4, -3, -1, 3, 0, 1, 2, 5
1491432631745,-3, 0, 2, 2, 0, 0, -1, -5
1491432631759,3, -1, -2, -14, -5, -3, -4, -1
1491432631766,-6, -1, -4, -4, 2, -1, -2, -5
1491432631774,2, -1, 4, 5, 1, 1, 5, 2
1491432631789,-2, -7, -4, 2, 1, -1, -3, -2
1491432631796,-3, 0, 0, -10, -5, -3, -1, 1
1491432631805,11, -9, -6, 5, -1, -2, -2, 2
1491432631819,-3, 4, 6, 3, 3, 4, 2, -1
1491432631826,-12, -6, -3, -9, -2, -5, -1, -5
1491432631834,-6, -4, -3, -1, 3, 1, -2, -3
1491432631848,1, 13, 7, 1, -2, 4, 4, 1
1491432631856,4, -15, -3, -12, -2, 1, 0, 3
1491432631857,11, 24, 4, 31, 9, -1, -1, -3
1491432631864,-26, -3, -6, -17, -3, -5, -1, -3
1491432631879,21, -1, -3, -17, -5, -2, -2, 4
1491432631888,-9, -6, -8, -16, -15, -2, -4, -2
1491432631895,-14, -10, -9, -11, -5, 0, 0, -2
1491432631909,-2, 2, 6, 10, 0, 0, -1, 1
1491432631916,3, -3, -1, 9, 2, -1, 0, -5
1491432631924,1, -1, -2, -11, -3, 0, 0, 1
1491432631940,13, -7, -5, -13, 1, -1, 1, -1
1491432631946,2, 1, 7, 60, 20, 4, -1, -3
1491432631954,-9, -6, -4, -14, -10, -2, -5, 0
1491432631970,-7, 0, 1, -12, 1, -2, 0, -1
1491432631976,-4, -4, -2, 5, 4, 3, -1, -1
1491432631991,8, 1, 3, 2, 3, 0, -1, 1
1491432631999,-8, 1, 0, -5, -4, -3, 1, 2
1491432632013,6, -8, 1, -8, -5, -3, -4, 1
1491432632015,-25, -9, -2, 4, -3, -2, -5, -7
1491432632029,21, 5, -2, 0, 4, 1, 1, 0
1491432632037,11, 3, -2, 7, 1, 0, 0, 5
1491432632044,-2, 3, -4, -8, -6, -4, 0, -5
1491432632059,-1, 0, -2, 0, -1, -1, 2, 3
1491432632066,11, 2, 7, -1, 0, -4, -3, -7
1491432632074,-8, -4, -2, 1, -1, -3, 1, -7
1491432632089,0, -12, -10, -2, -6, 1, -2, 2
1491432632097,-9, -5, -1, -1, 0, -2, -1, 0
1491432632111,0, -1, -3, -4, -3, -4, -1, 2
1491432632119,40, 3, -1, 1, 0, -2, -2, 5
1491432632126,1, 5, 8, -2, 1, 0, 0, 0
1491432632134,-12, -8, -1, 3, 2, 2, -3, 1
1491432632148,5, -6, -7, -5, -3, -4, -5, -4
1491432632156,-18, -1, 0, -3, -3, 1, -3, -4
1491432632157,0, 3, 2, 0, -1, 1, 1, -4
1491432632164,-36, -4, -5, 0, 0, -1, 2, 1
1491432632179,21, -2, -2, -2, 2, -1, 1, -4
1491432632186,-43, -4, -5, -4, -15, -6, -1, -7
1491432632194,-3, 0, 0, 0, 0, -1, 5, 2
1491432632208,5, -5, -4, -1, 4, 7, 1, 2
1491432632216,-14, 0, 3, -1, -4, -5, -4, -3
1491432632224,7, -1, -1, 5, 4, 0, -2, -7
1491432632239,-3, 3, 6, 1, 3, 0, 0, 2
1491432632245,-21, -3, -3, -4, -4, -3, 0, 2
1491432632246,13, 0, 0, -1, -1, -2, -3, -3
1491432632254,-3, 2, -1, -3, -3, -3, 0, 4
1491432632268,-1, 2, 0, -2, 1, 1, 1, 11
1491432632277,6, -1, 0, -2, -1, 1, -3, 6
1491432632284,9, -1, -2, -3, 5, -1, 0, 4
1491432632299,-10, 4, -3, -4, -2, -2, -2, 3
1491432632306,7, -3, -3, -9, -7, -2, -2, 0
1491432632315,-8, -5, -1, 0, -1, -1, -1, -10
1491432632328,8, 2, 1, -2, 0, -3, 1, 2
1491432632336,-1, -4, -5, -1, 1, 3, 0, -2
1491432632351,7, 1, 2, 0, 2, 1, 0, 1
1491432632359,-11, -4, -4, 5, 5, -1, 1, -2
1491432632366,-9, -7, -4, 1, -2, 0, 1, -2
1491432632374,-2, -4, -3, -4, -2, -3, 1, 0
1491432632394,0, 7, 2, 1, -2, 2, -2, -7
1491432632396,18, 1, -1, -2, -3, -1, 1, 2
1491432632413,-8, -3, -3, 1, -2, -2, -3, -3
1491432632426,-3, 3, 2, 3, -2, -1, -2, 5
1491432632428,27, 2, 0, -1, 1, 1, -3, 3
1491432632434,-10, -4, -3, -5, -3, -7, -2, -4
1491432632435,4, -2, -2, -1, 0, -4, -2, -2
1491432632451,-6, -1, 2, 0, -1, 0, 0, 4
1491432632456,-4, 3, 3, -1, 0, -2, -3, -10
1491432632472,13, -6, -5, 1, 0, -2, 0, -5
1491432632479,-7, -6, -2, -1, -5, 0, -4, -20
1491432632494,-13, -5, -1, 1, -1, -2, 0, -5
1491432632495,48, 10, -2, -1, 1, 3, 1, 6
1491432632510,-15, -5, -1, -2, 1, 3, -1, 6
1491432632517,-33, -5, -3, -1, -3, -1, -2, -16
1491432632532,-2, 2, 5, 0, 0, -1, 1, 1
1491432632539,9, 0, 0, -1, -1, -1, 2, 6
1491432632547,-35, -8, -4, -1, 0, 0, 0, 1
1491432632561,-8, -11, -2, -3, -1, 1, 2, 2
1491432632576,5, 6, 3, 0, -1, -1, -1, -1
1491432632577,-2, -1, -1, -1, 2, 0, -1, 2
1491432632592,6, -1, -3, -3, -7, -4, -10, -5
1491432632600,-3, -3, 1, 0, 2, -1, -1, 5
1491432632607,6, -2, -2, 0, 0, -3, 2, -13
1491432632621,-20, 2, 8, 0, -5, -2, -11, 1
1491432632629,-3, -2, -2, 2, 2, -3, -3, 8
1491432632636,-15, -2, -2, 1, 2, 3, 1, -8
1491432632653,-5, -4, 0, 0, 0, 3, 3, -6
1491432632659,14, -6, -4, -4, -4, -1, 2, 9
1491432632667,-13, -4, -1, 0, -3, -3, 2, 3
1491432632681,-9, 0, -6, 1, -2, -4, -2, -2
1491432632689,-9, 0, 1, 1, 2, -3, -3, 4
1491432632697,-46, -4, -5, -2, -5, -3, 3, -8
1491432632712,9, 11, 0, 0, -1, -2, -2, 13
1491432632719,17, -1, -5, 0, 1, -2, -1, -2
1491432632727,9, -3, 0, -1, -1, 3, 3, -6
1491432632741,9, 2, 3, 0, -1, 0, -2, -1
1491432632742,-11, -8, -2, -4, 2, 3, 6, 3
1491432632750,-17, -6, -2, -4, -1, 1, -5, -9
1491432632756,13, -1, 1, -1, -3, -4, -1, 2
1491432632772,-1, -1, -1, -2, -3, 1, 1, 0
1491432632779,1, -1, 3, 2, 2, -4, -3, 10
1491432632787,25, -1, 1, 2, 3, 0, 4, -1
1491432632801,7, 12, 5, 3, -4, 1, 0, -4
1491432632810,-9, -2, -4, -13, -3, 0, -5, -2
1491432632816,18, -2, -2, -2, 0, 1, 1, 2
1491432632832,-4, -1, -2, -5, -4, -3, -2, -16
1491432632840,-3, -4, 1, 2, 1, 0, -2, -4
1491432632854,6, -4, -2, 2, 1, -4, 0, -1
1491432632862,-13, -8, -2, -3, -2, 2, -2, -6
1491432632869,-20, -3, -5, -3, -10, -3, -7, 4
1491432632876,8, 7, -1, -2, -1, 1, -2, -9
1491432632892,-6, -4, -6, 1, 3, -1, -2, 12
1491432632899,5, -2, -1, -2, 0, -3, -1, 1
1491432632908,-2, 2, 2, 2, -2, 1, -3, -6
1491432632921,5, -5, -4, 0, 0, -4, -4, -7
1491432632929,-10, 1, 0, 0, 3, -1, 0, 0
1491432632930,8, 2, 1, 1, 3, -1, 3, 4
1491432632936,-32, -11, -5, -3, -2, -1, -1, -9
1491432632937,12, 7, -1, 2, 1, 4, 2, 3
1491432632952,42, 4, -1, -4, -5, -4, 0, 0
1491432632959,-2, -6, -3, -4, -9, -4, -3, -1
1491432632967,-5, 0, 4, 4, 3, 1, -2, 2
1491432632981,2, 2, 0, -3, -7, -3, -3, 3
1491432632990,-13, -25, -7, -2, -2, 1, 2, -1
1491432632997,-18, -14, -9, -6, -4, -6, -6, -3
1491432633019,-2, 7, -2, 0, -2, -8, -2, -20
1491432633020,0, -4, 5, 4, 6, 4, 5, 4
1491432633028,-1, -11, -4, 1, -2, 4, 7, 17
1491432633041,10, 0, -3, -8, -8, -4, -5, -6
1491432633042,14, 11, 0, 0, 4, -3, -1, -4
1491432633055,1, -4, 1, 1, 1, -4, 9, 2
1491432633056,-13, -2, 5, 4, 1, -4, -5, -14
1491432633057,6, -2, 0, 1, 1, 0, 0, 2
1491432633072,18, 12, 7, -1, -3, -1, -3, 6
1491432633079,30, 7, 2, 2, 3, 1, 0, -1
1491432633087,29, 9, 1, 0, 1, 2, 0, 3
1491432633101,-18, -8, -2, -1, 1, 3, 0, 4
1491432633113,-24, -7, -5, -3, 3, 0, -1, 3
1491432633116,1, 8, 5, -1, -1, -3, -4, 3
1491432633134,12, 1, -4, -2, -1, -2, 0, -3
1491432633139,23, -9, -9, -4, -5, -2, -4, -2
1491432633155,-4, 1, -4, 1, 2, 0, 0, -5
1491432633161,-3, -4, 0, 0, -1, 1, 2, 10
1491432633162,-43, -4, 3, 0, 3, 2, 2, -3
1491432633170,7, 13, 2, 3, 2, -2, -2, -7
1491432633176,-31, -18, -8, -2, -1, 1, 2, -2
1491432633194,-20, -4, 6, 3, 6, 7, 6, 8
1491432633199,-4, -3, -3, 0, 5, 4, -4, -4
1491432633207,15, -3, -3, -2, -2, -5, -2, -3
1491432633221,1, -1, -1, -6, -13, -7, -3, -5
1491432633230,-5, -4, -4, -4, -5, -2, -3, -3
1491432633236,-10, -4, 3, 1, 4, 2, -1, -1
1491432633237,2, 6, 2, 0, 1, -2, -3, 1
1491432633252,-14, 8, 1, 3, -4, -2, -1, 12
1491432633259,-18, 1, 0, 3, 4, 0, 1, 4
1491432633267,3, -8, -2, 2, 3, 2, -1, -1
1491432633281,5, -2, 2, -1, 1, 2, 3, 2
1491432633290,19, 0, 0, -6, -3, -6, -1, 2
1491432633296,-1, -4, -5, -1, -1, -3, 1, -4
1491432633314,-12, -1, -2, -4, -4, -2, 2, -5
1491432633319,28, 3, -4, 0, -1, 4, -1, 3
1491432633327,11, -8, -6, 0, 3, -1, 1, 6
1491432633341,0, 5, 5, 6, 5, -2, 1, 2
1491432633349,0, -2, 5, -4, -4, -2, -2, -10
1491432633356,-1, -7, -1, -1, 1, -1, 0, -3
1491432633372,-9, 22, 1, 1, -4, 1, 1, 2
1491432633379,51, 6, -2, -2, -7, -1, -6, 5
1491432633387,-24, -10, -5, -3, 0, -1, -2, -7
1491432633401,-15, 6, 2, 1, -3, -5, 0, -4
1491432633412,5, -4, -1, 1, -1, -3, -2, 2
1491432633416,-13, -6, -2, -3, 1, 0, -3, 1
1491432633432,13, -17, -2, 0, 3, 2, 2, -11
1491432633439,-17, -6, -8, -4, -1, -4, -3, -9
1491432633447,15, -1, -2, -4, -2, 1, -4, 2
1491432633461,5, 1, 4, 1, -1, 0, 2, 0
1491432633462,-7, -3, -1, -3, -5, -1, -2, -6
1491432633470,-12, -11, -1, -1, -2, -4, -2, 1
1491432633484,-6, 10, 8, 0, 0, -1, -1, -1
1491432633492,12, 6, 5, 1, 5, 5, 1, 2
1491432633499,-12, -9, -4, 0, -2, 1, -2, -6
1491432633514,-28, 0, -7, -3, -5, -1, -1, -4
1491432633522,9, -11, -7, -2, 1, 0, 2, 8
1491432633529,-8, 0, -6, -5, -3, -4, -3, -8
1491432633544,-11, -6, -2, 1, -2, -1, 2, -1
1491432633552,-14, -12, 0, 3, 5, 3, 1, 5
1491432633559,-17, 14, 9, 3, 0, 2, 0, -4
1491432633574,-2, -11, -6, -1, 1, 1, -1, 4
1491432633575,7, 10, 2, -1, -1, 2, -2, -4
1491432633581,-1, -10, -4, 0, 0, -2, -2, 2
1491432633582,5, 0, -4, -4, -1, 1, 0, 12
1491432633589,1, 6, 4, 4, 3, 4, 4, -5
1491432633590,-14, -8, -5, -6, -8, -5, -3, -3
1491432633604,0, -3, -1, -2, 0, -3, -2, 3
1491432633612,-5, -7, 1, 3, 3, -1, -1, -4
1491432633619,52, 13, 6, 0, 1, 2, -1, 2
1491432633634,9, -1, -5, -2, -6, 0, 0, 3
1491432633641,-58, -13, -3, 1, -3, -5, -2, 2
1491432633650,-1, -6, 1, 4, 9, 2, 3, 9
1491432633664,15, -7, -3, -2, -1, -1, 0, -4
1491432633672,10, 7, 0, 0, 0, -2, -2, 1
1491432633679,-15, -14, -6, -4, -1, 2, 2, -7
1491432633694,6, 6, 1, 2, 0, -1, -2, -15
1491432633703,18, 9, 5, 0, -2, -1, -4, 9
1491432633711,19, -16, -6, -3, -4, 0, -4, -11
1491432633724,0, -6, -1, 2, 1, -4, 1, -4
1491432633733,10, 11, 1, 1, -4, -2, -2, -4
1491432633734,-11, -5, -2, 1, -4, -4, 0, 4
1491432633739,26, -1, -4, -2, 0, 2, -1, -5
1491432633754,-3, 3, -2, -1, -2, -2, 1, 9
1491432633761,-18, -1, 0, -1, 1, -4, -2, -12
1491432633770,17, 6, 0, -1, 2, -1, -1, -1
1491432633784,10, 3, 0, -3, -2, 0, 0, -2
1491432633792,-12, -1, 3, -3, -1, 0, -2, -21
1491432633799,-6, 1, -3, -1, -1, 0, 0, -4
1491432633814,-54, -4, -2, -1, -3, -2, 0, 15
1491432633821,-9, 2, -1, 1, -3, -2, 0, -5
1491432633830,5, 2, 1, 0, -3, -2, -3, 0
1491432633844,0, -1, 2, 1, 2, 0, 2, 5
1491432633852,5, 0, -2, 2, -1, -2, 0, -2
1491432633859,13, 0, -4, 0, -3, 3, 3, 5
1491432633874,13, 0, -1, 0, -2, -4, -3, 6
1491432633881,-36, -8, -1, -3, -1, -3, 1, 5
1491432633890,13, -5, -6, -3, -2, 0, 1, -1
1491432633904,2, -2, -5, -1, 0, -3, 0, 1
1491432633923,14, -1, 2, 0, 0, 2, -2, -5
1491432633934,12, 3, -2, 1, -2, -2, -2, 6
1491432633941,-26, -6, -3, -1, -3, -3, 2, -9
1491432633942,29, 8, 1, 0, -1, -2, -4, 4
1491432633949,-6, -2, 4, -1, -2, 0, 1, -3
1491432633964,-5, -2, -2, -3, -2, -3, -3, 3
1491432633973,-6, 3, 1, -1, 0, 0, 1, -1
1491432633979,-6, -1, -1, -2, -1, 2, 0, -1
1491432633994,-5, 3, 3, -1, 1, -1, 1, 3
1491432634001,24, 1, 1, -3, 0, 0, -2, -17
1491432634010,-5, -2, 0, 1, -2, 1, 2, 1
1491432634024,-11, -3, -2, 1, -2, -2, -4, -3
1491432634033,-4, -2, -1, -3, -4, -1, -2, 1
1491432634040,-6, -1, -5, -3, -3, -1, -2, -1
1491432634056,0, 17, -3, 1, 3, 0, 0, -6
1491432634061,-21, -15, -6, -3, 1, -4, -2, -18
1491432634069,15, -14, -4, 2, -2, -2, -2, 9
1491432634084,-13, -5, -1, -1, 0, -1, -1, 1
1491432634092,10, -8, -6, -3, 0, -1, -2, -6
1491432634099,-12, 0, -1, -3, -5, -2, -1, 7
1491432634114,0, 5, 5, -2, -4, -4, -1, -3
1491432634121,1, -2, -2, 0, 1, 4, -1, 0
1491432634129,0, -6, 1, 2, -1, 3, 2, 20
1491432634144,22, 19, 6, 2, 2, 0, 0, 9
1491432634153,-2, 1, 0, 0, 2, -2, -3, -9
1491432634159,-13, 0, -1, 3, 1, 0, 5, 6
1491432634174,-9, 0, 1, 0, 1, 0, 1, -1
1491432634182,-7, -5, -2, -4, -1, -1, -4, -9
1491432634190,-19, -1, 0, 2, 6, -2, 1, -2
1491432634191,12, -7, -7, -5, 1, -2, -3, -5
1491432634204,-4, -5, -5, -3, -1, -2, -4, 5
1491432634212,-17, 0, 1, 1, -2, 0, -4, -4
1491432634219,0, -3, 2, 2, 0, 2, 0, -6
1491432634234,6, 12, -1, -2, -3, 1, -8, -17
1491432634241,-5, -7, -16, -8, -7, -5, -3, 8
1491432634249,-7, 7, 13, 5, 1, 2, 2, -9
1491432634250,17, -4, -4, -1, -4, -2, 1, 11
1491432634271,-37, -10, -7, -2, 1, -1, 0, -6
1491432634273,-12, -1, 2, 2, 0, -1, 2, 0
1491432634279,24, 7, 7, 8, 6, 2, 1, 1
1491432634294,-15, -7, -6, -2, 1, -2, 3, -3
1491432634301,10, -4, 3, 5, 5, 5, 2, 3
1491432634310,7, -8, 3, -1, 0, 2, 0, 1
1491432634324,17, 0, -1, -6, -5, -5, 0, 0
1491432634333,8, 2, 1, -6, -1, -2, -4, -7
1491432634339,46, 14, 3, 2, -2, 1, -1, 4
1491432634354,-2, 4, -1, -4, -2, 1, 2, 2
1491432634363,8, 4, 1, -1, 1, 2, 2, 8
1491432634370,-8, 0, 2, -1, -2, -1, -1, 3
1491432634384,-21, -5, -2, -6, -6, -3, -5, -16
1491432634392,-19, -12, -4, 2, 2, -5, -2, -2
1491432634399,-16, -5, 4, 2, -5, -3, 3, 8
1491432634414,9, -2, -6, -1, -4, -2, -10, -21
1491432634421,-43, -9, -1, 1, -1, -2, -5, -14
1491432634436,32, 1, -3, -6, -5, -6, -13, -24
1491432634437,-66, -8, 2, 0, 5, 7, 14, 16
1491432634444,-16, -6, -4, -1, 4, 8, -4, -19
1491432634452,33, 4, -1, 1, 4, -1, 0, -8
1491432634466,8, 3, 2, -6, -20, -8, 5, 17
1491432634474,-2, 0, 0, -1, 2, 23, 9, 24
1491432634481,15, 3, -3, 3, 10, 6, 11, 9
1491432634497,21, 7, 5, 0, -9, -15, -8, 34
1491432634504,-5, -4, -3, -2, 2, 0, 17, -33
1491432634519,1, -4, -5, -3, -4, -8, 2, -17
1491432634526,0, -5, -4, -6, -3, -7, -11, 32
1491432634534,25, 1, -4, 0, 1, -4, -9, -15
1491432634548,-7, 0, 2, 4, -1, 3, -1, -12
1491432634556,16, 2, -3, -2, 1, -1, -2, -8
1491432634571,3, -1, 2, -1, 2, -2, -2, 16
1491432634573,-19, -1, 3, 0, 0, -3, 0, -16
1491432634586,-25, 5, -1, 2, 1, 0, -1, 1
1491432634594,-27, -6, -3, -3, 5, 4, -20, -7
1491432634601,8, -3, 0, 1, 5, 12, -7, 4
1491432634624,36, 5, -2, -1, -1, -4, -1, -7
1491432634634,26, -10, -6, -3, -6, -3, 5, 8
1491432634646,5, 10, 5, 1, -2, -3, -1, -7
1491432634655,-14, -2, 0, -3, -4, -1, -2, -25
1491432634661,0, -3, -3, -1, 1, 0, -7, 19
1491432634676,-30, 0, -2, -2, -2, -6, -5, -2
1491432634684,-7, -4, -2, 0, -2, -7, -3, 8
1491432634692,6, 5, -1, -1, -1, 4, 22, 16
1491432634707,-8, -8, -8, -5, -1, -7, -10, -10
1491432634716,46, -2, -2, -5, -3, 5, 1, 4
1491432634721,-16, -4, -2, -6, -6, -5, 3, -43
1491432634736,6, 4, 5, 2, -3, 2, 6, 28
1491432634744,4, -6, -4, -6, -3, -1, -12, -9
1491432634752,-15, 1, 0, 2, 2, -7, -9, -12
1491432634766,-16, -5, 1, 5, 2, 5, 10, 23
1491432634774,-29, 6, 1, -1, -3, -4, -3, -8
1491432634781,-3, 0, 1, 1, 3, -2, -7, 14
1491432634796,1, -19, -8, 1, -1, -2, -11, -19
1491432634804,-32, -7, -5, 1, -2, 0, 1, -23
1491432634813,-22, -24, -11, -6, -11, -4, -2, -9
1491432634826,-31, -25, -10, -3, -4, -2, 7, -15
1491432634834,13, 20, 12, 3, 6, 0, 0, 3
1491432634842,22, 4, 9, 0, 4, -1, 2, 5
1491432634856,-14, -4, -7, 0, 0, 0, -5, 39
1491432634865,59, -11, -4, 1, 0, -1, -5, 12
1491432634872,39, 32, 9, 4, 3, 1, -17, -21
1491432634886,-6, 3, 2, 1, -1, 0, 0, -3
1491432634894,34, -9, -1, 4, 5, 4, 7, -9
1491432634901,15, 9, 4, 0, -2, -5, -17, 6
1491432634917,30, 9, 0, 1, -1, -1, 4, 23
1491432634918,-32, -3, -1, -2, -4, -8, -5, -37
1491432634924,4, 9, -3, -3, -4, -1, 9, 21
1491432634932,0, 3, 4, -1, -1, -4, 6, 9
1491432634946,-62, 17, 9, 1, 2, 0, -15, -78
1491432634954,-20, -1, 3, 4, 4, 4, 6, 3
1491432634961,12, 22, 4, 2, -1, -3, -3, -1
1491432634976,2, -12, -3, -1, 0, 1, 13, 12
1491432634984,13, -7, -1, -2, 8, 4, -2, 18
1491432634992,-29, -1, -2, -3, 6, 2, 2, -7
1491432635006,12, 7, 5, 5, 1, 7, 7, 12
1491432635007,5, -8, -8, -2, -4, -2, -3, -14
1491432635014,0, 36, 7, 2, -6, 1, 9, -29
1491432635021,1, -14, -4, 2, 5, -5, -20, -28
1491432635036,13, 3, -1, -4, -2, -1, 4, -18
1491432635037,-29, -21, -12, -5, -8, -3, 2, 10
1491432635045,15, -7, -3, 0, -4, 3, 18, 25
1491432635052,22, -15, -8, -5, 1, 0, -7, 20
1491432635067,3, -8, 0, -1, -17, 0, -5, 6
1491432635075,2, -5, -2, 3, 2, 2, 4, -34
1491432635081,-14, -17, -5, -9, -5, -2, 4, 15
1491432635096,46, -14, -2, -4, -6, -4, -4, 11
1491432635104,-23, -13, -9, -2, -3, 5, 28, 30
1491432635112,18, 9, 3, 1, 1, 0, -9, 13
1491432635126,-21, -10, 0, 1, -1, 4, 16, 8
1491432635127,20, 22, 1, -2, 1, -3, -3, -17
1491432635141,-39, 6, -2, -1, -1, -1, -7, -1
1491432635142,15, 1, -2, 2, 3, -2, -3, 5
1491432635156,48, 4, 6, -1, -2, -4, -6, 15
1491432635164,7, 0, -6, -3, -1, -1, -8, -8
1491432635172,0, -4, -7, -3, -2, -3, 6, 17
1491432635186,-22, -7, 0, 1, 1, 2, 7, -49
1491432635194,17, 5, 8, 3, 19, 2, -27, -6
1491432635203,-32, -2, 3, -2, -2, -5, -13, -21
1491432635216,16, -10, -6, 0, -1, 4, 5, -1
1491432635217,-15, -16, -5, -5, -7, -4, 8, -9
1491432635224,-13, 6, -2, 2, 4, -1, 0, -3
1491432635232,-12, -9, -4, 1, -3, 1, 10, 16
1491432635246,23, 2, 3, -2, -4, -5, 0, 49
1491432635254,-5, 1, 2, 0, 27, -3, -16, 18
1491432635261,-3, 9, 1, 0, -9, 3, 1, -4
1491432635276,-18, -2, -5, -1, -15, 1, 20, 3
1491432635286,15, -2, -1, 0, 10, 2, 15, 4
1491432635299,-1, 9, -2, -2, -7, 0, 0, -19
1491432635306,10, -7, -2, -3, -1, -1, -12, 15
1491432635314,3, -8, 1, 1, -3, -4, -1, -11
1491432635321,17, 9, 2, 0, 0, 1, 3, 10
1491432635336,28, -5, -1, -4, -2, 2, 19, 12
1491432635344,1, 5, 1, -1, -1, -3, 6, -1
1491432635359,4, 4, -2, -1, -7, 2, -1, -25
1491432635366,-15, -6, -4, 0, 3, 4, -2, -5
1491432635378,-18, 2, 2, 1, 3, 0, 13, -4
1491432635388,-4, -1, 5, 1, -6, -10, -8, -22
1491432635396,-21, -20, -3, 0, 5, 4, -1, -3
1491432635404,19, -10, -10, -3, -7, 0, -22, 10
1491432635419,-9, -9, -5, 0, -15, -5, 8, 18
1491432635420,-12, 1, -4, -5, -6, -15, -15, -3
1491432635426,-14, -14, -3, 4, 6, 9, 4, 2
1491432635434,7, -18, -2, -2, -19, 2, -7, -2
1491432635448,15, -1, -1, -1, -5, -8, 3, -3
1491432635456,-4, 19, 5, 2, -3, 0, 4, -1
1491432635464,0, 14, -1, -5, 1, -1, -3, -18
1491432635479,3, 5, -1, -1, 2, 0, -17, 17
1491432635488,-4, 26, 3, 4, 7, -2, -6, -1
1491432635495,10, -4, 2, -4, -6, -2, -6, 44
1491432635496,-2, 2, 0, 0, 3, -1, 0, -20
1491432635508,10, -18, -2, -3, -1, 4, 5, -8
1491432635516,-34, -12, 0, -2, -2, -2, -14, -45
1491432635524,-2, -6, 2, 5, 14, 7, 10, 23
1491432635540,2, 1, 1, -2, 3, -3, 0, 11
1491432635546,5, 3, -3, -3, 8, -2, 13, 7
1491432635554,12, -8, -8, -5, 0, 0, 2, 50
1491432635568,-4, -12, -3, -1, -6, 1, 5, 23
1491432635576,45, 3, -3, 1, 6, 2, 5, 21
1491432635584,-17, 9, 1, -8, -4, -1, 4, -9
1491432635599,-12, 5, 4, 1, -6, 0, -10, -52
1491432635607,4, -11, -5, 2, -7, -10, -4, -10
1491432635614,-5, -3, -2, 4, -4, -4, -8, -13
1491432635629,-3, -1, 1, 1, -10, -3, -5, 12
1491432635637,-54, -17, -7, -2, 4, -5, -11, -38
1491432635644,1, 0, -7, -5, -6, -3, -14, 0
1491432635662,25, 12, -4, -1, 1, 3, 25, 39
1491432635666,-6, -3, -3, -4, 2, 0, 1, -6
1491432635675,-30, 4, 3, 1, 2, 0, 14, 12
1491432635688,5, 0, -1, -3, -2, -2, -8, -27
1491432635696,-10, -22, -6, -4, -4, 1, -5, 34
1491432635708,-6, -17, -1, 0, -5, -1, -12, -1
1491432635719,2, -11, -1, -1, 3, -3, -12, 25
1491432635726,-2, 9, 1, 2, 9, 5, 8, 10
1491432635734,13, -11, -5, -1, -4, -2, 2, 20
1491432635748,-6, 0, -1, 2, -1, -2, -8, 0
1491432635756,-8, 2, 0, 0, -1, -1, -10, -28
1491432635764,7, -1, -6, -4, -4, -3, 5, 7
1491432635779,0, 0, 2, -3, -6, 0, 16, 10
1491432635786,17, 10, 4, -1, -3, -2, 8, 8
1491432635796,17, 4, -2, -2, -21, -2, -5, -36
1491432635809,-27, -11, 0, 1, 1, 2, -19, -14
1491432635816,-5, 17, 10, 6, 2, 1, -7, -2
1491432635831,-9, -3, -2, -2, -1, -1, 14, -26
1491432635841,20, 2, -8, -5, 1, 1, -1, -7
1491432635853,7, 8, -1, 4, 2, -3, -8, -2
1491432635858,-1, -13, -6, -2, 2, 2, 5, 8
1491432635868,-9, -14, -3, 0, -4, 0, 5, 17
1491432635877,19, 12, 3, 1, 2, -2, -1, 5
1491432635884,2, 1, 4, 0, -1, 1, 2, -8
1491432635899,-8, -4, 1, -1, 1, -1, -9, -5
1491432635906,5, -2, -6, -7, -11, -11, -5, 1
1491432635915,-1, -23, -4, 1, 11, 3, 6, -22
1491432635929,-6, 41, 3, 0, 0, 0, -13, -11
1491432635936,-14, 5, -1, -2, -4, -3, 3, -17
1491432635944,-19, -11, 5, 0, 4, 0, 5, 3
1491432635960,-14, 5, 2, -2, 2, -2, -3, -4
1491432635966,-9, -19, -9, 0, 0, -2, -10, 13
1491432635974,-3, -1, -2, 1, -1, 0, 0, 7
1491432635988,11, -22, -3, -1, 2, 2, 2, 9
1491432635997,13, 6, 1, 1, -3, 1, 0, 2
1491432636004,-1, -12, -4, -2, -2, 0, -10, -27
1491432636019,6, -1, 0, -2, -4, -1, 2, -7
1491432636026,14, -8, -3, -2, -4, -1, 16, 15
1491432636034,19, 7, -4, 0, 0, -5, -8, 16
1491432636050,15, 4, 2, 2, 2, 0, 11, -3
1491432636056,-1, 14, -1, -3, -3, -1, -2, -5
1491432636064,3, 0, 2, 1, 0, 4, 4, 21
1491432636086,-2, -1, 2, 0, 0, -1, 11, 7
1491432636087,-11, -2, 0, -2, -7, -5, 1, -27
1491432636095,-5, -6, 0, 0, 1, 1, -2, 3
1491432636108,-1, 4, 0, 0, 2, 2, -1, 7
1491432636116,-2, -6, -3, -3, 0, 0, -7, 0
1491432636124,5, 2, -2, 3, 5, -1, -2, -10
1491432636125,1, 3, 1, 0, 1, 0, 3, 3
1491432636139,-2, -5, -3, 0, -3, -2, 1, 4
1491432636140,5, -7, 0, -1, -3, -3, -7, -11
1491432636146,-8, -2, -4, -3, -2, -8, -11, -3
1491432636154,-3, -5, -3, -1, 5, -3, -6, 8
1491432636168,-12, -6, -3, -2, -3, 1, 9, -10
1491432636176,-3, -2, -3, -2, -4, -3, 1, -5
1491432636184,-13, 4, 3, 0, 2, 5, -6, 3
1491432636199,-5, 6, 1, 0, -2, -1, 8, -9
1491432636206,4, -13, -6, -1, -1, -2, -1, -2
1491432636214,2, 19, 5, 4, 0, 1, -2, -14
1491432636228,11, -10, -3, 0, -3, -2, -5, -4
1491432636236,-8, -18, -1, -1, 4, 2, -5, 9
1491432636244,1, 5, -1, 1, 1, -6, 7, -1
1491432636259,-9, -11, -6, -5, -4, -1, 6, 9
1491432636266,-3, -9, -7, -4, -3, -1, 2, 6
1491432636281,-5, -3, -3, 1, -1, 2, 18, 0
1491432636288,0, 10, 3, 1, 1, -1, -5, -11
1491432636296,9, 3, 2, -2, -1, -4, 9, 11
1491432636310,-16, -6, -2, 0, 0, -2, -7, -13
1491432636311,0, -14, -2, 0, 1, 0, 5, 17
1491432636318,14, 10, -1, 2, 1, 1, 0, -25
1491432636319,-25, -6, 0, 1, 4, -1, -13, -5
1491432636326,-10, -4, 1, 0, 1, -2, -5, -4
1491432636342,5, 5, 2, 2, 0, -2, -4, -1
1491432636348,4, 14, 5, 1, -1, 0, -7, -2
1491432636356,-1, -3, -2, 1, 2, -1, -12, -9
1491432636370,2, -4, 0, -2, -1, 1, 15, 14
1491432636371,5, 10, -1, -3, -1, 1, 0, 0
1491432636379,-4, -1, 2, -1, -4, -2, -6, 5
1491432636393,-2, -4, 3, 1, 1, -3, -5, -2
1491432636401,-4, -11, -8, -3, -3, -5, -4, 1
1491432636408,-11, 0, 0, -1, 1, -1, 5, 1
1491432636417,-1, 0, 0, -4, -2, 4, -1, -6
1491432636431,4, 35, 1, -3, -7, 1, -2, 4
1491432636440,4, 19, 12, 4, -2, 1, 6, 4
1491432636441,5, -10, -7, -2, -4, -3, -4, -5
1491432636448,2, -14, -4, -2, 3, 1, -6, -3
1491432636461,4, 10, 9, 4, 0, -1, -7, -2
1491432636469,-2, -2, 0, -1, -2, 1, 5, -3
1491432636476,-1, -1, -4, -1, 0, -1, -3, -3
1491432636490,4, -5, -1, 1, -2, -4, 0, 8
1491432636500,1, -5, -1, -2, -5, -4, 1, 3
1491432636506,-1, -13, -5, -4, -3, 0, 1, 1
1491432636521,-4, -5, 0, 0, -1, 1, 15, 6
1491432636528,-4, -12, -7, -3, 0, -3, 10, -12
1491432636536,3, -8, -6, -5, 0, 0, 9, 1
1491432636550,-3, 7, 3, 1, 1, 3, -4, 1
1491432636551,7, -5, 2, 2, 0, 4, 1, 4
1491432636559,6, -2, -5, -4, -2, 0, 1, 5
1491432636566,-1, 0, 1, 1, 1, -1, -13, -15
1491432636581,0, 29, 6, 2, -2, 0, -1, -4
1491432636588,-14, -14, -4, -2, -2, 0, -8, 3
1491432636596,1, 1, -4, 1, 0, -2, 2, -1
1491432636610,-9, -8, -7, -1, -1, -8, -16, -22
1491432636611,2, 7, -1, 1, 0, -1, 12, 9
1491432636619,-1, 12, 5, -1, -1, -1, -6, -17
1491432636626,6, 27, 14, 6, -1, 2, -5, -4
1491432636641,-15, -8, -7, -6, 1, 1, -9, -8
1491432636648,-3, -6, -1, 0, 2, -4, -7, -4
1491432636656,-5, -14, -4, -3, -4, 0, -4, 0
1491432636671,-2, -14, -5, 0, -1, 2, 6, -7
1491432636679,4, -15, 4, 2, 1, -3, 0, 0
1491432636686,-2, -9, -2, -2, 2, -2, 2, 2
1491432636708,9, 11, 4, 2, -1, -2, 1, 2
1491432636709,-2, -13, -15, -8, -6, -1, -8, -4
1491432636716,-9, -9, -3, 5, -2, -2, -3, 3
1491432636731,1, -13, -8, -9, -5, -2, 7, 18
1491432636739,0, -7, 1, 0, 2, -2, 5, -6
1491432636746,-5, 11, 4, 1, 2, -1, 1, -1
1491432636762,-3, -1, -1, -1, 2, 0, 0, -1
1491432636768,11, 11, 4, 4, 0, -1, -4, 1
1491432636776,-5, -18, -8, -2, 0, 0, -2, -2
1491432636790,-7, -2, -2, -3, -1, -1, -5, 0
1491432636799,9, 27, 7, 0, 1, -2, -12, 11
1491432636807,4, 6, 4, 2, 4, -1, -1, 4
1491432636821,2, 5, 2, 1, -1, 0, -2, -2
1491432636828,10, 22, 4, 1, -4, -1, -5, -7
1491432636840,1, 8, 0, 1, 1, 0, -12, -1
1491432636852,-4, -11, 0, 1, 3, 1, 1, 3
1491432636859,-3, -11, -2, -3, -4, -2, 1, -1
1491432636866,11, 28, 5, 1, -1, 0, 1, 1
1491432636881,1, -5, -3, -4, 0, 4, 6, 6
1491432636888,-1, 3, 6, 2, 2, 1, -1, -8
1491432636896,-8, -16, -10, -5, -1, -3, 9, -2
1491432636910,-7, -11, -3, -4, -1, -2, -2, -3
1491432636918,1, 7, 6, 4, 0, 0, -2, 6
1491432636919,0, -15, -5, -1, -3, 0, 6, -1
1491432636926,-4, 4, -2, 3, -3, -1, -4, -7
1491432636941,-2, -9, -4, -2, -5, -2, -6, 3
1491432636948,-5, -17, -5, 0, -1, -1, -3, -8
1491432636956,2, 9, 6, 3, 2, 1, -11, 0
1491432636973,-4, -25, -6, -4, -2, 1, 3, 5
1491432636979,-1, 18, 2, 3, 0, -1, 4, -2
1491432636986,-4, -6, -1, 0, -3, -4, 3, -11
1491432637001,-1, 10, -2, -7, -7, -7, -16, -2
1491432637002,-2, -13, -1, -6, -7, -1, 3, -11
1491432637008,-4, -9, -7, -1, 2, 0, 2, 0
1491432637017,3, 4, -3, -5, 1, -4, -2, 2
1491432637030,0, -9, -1, -2, 4, 3, 1, 2
1491432637031,-4, -4, -5, -5, 0, 1, -1, 6
1491432637039,-3, -13, -7, -2, -4, -2, -1, -19
1491432637047,-5, -13, -5, -5, -4, -3, -2, -6
1491432637061,1, 4, 0, 0, 0, -2, 0, 11
1491432637069,-3, -17, -11, -5, -1, -3, -2, -13
1491432637078,3, -10, 5, 4, 2, 2, 1, -3
1491432637090,-2, -3, -10, -5, -4, 0, -3, -12
1491432637091,1, -4, 0, 0, -3, 1, 6, 16
1491432637101,-1, -3, 6, 2, 1, -2, 5, 3
1491432637106,1, 4, 0, 0, 0, 1, 2, -3
1491432637122,0, -20, -10, -5, -1, 4, 2, -2
1491432637123,-6, -2, -2, -1, 2, 1, -8, 1
1491432637129,1, 13, 4, -1, 0, -2, -4, 4
1491432637145,9, 38, 3, 0, -4, -7, -11, -53
1491432637150,4, 16, 12, 7, -1, -3, -6, -2
1491432637158,2, -8, -4, -4, -1, 3, 7, 21
1491432637166,3, 2, 4, 2, 0, -2, -14, -10
1491432637182,-5, 0, -1, 1, -2, -2, 2, 17
1491432637189,0, -12, -5, -3, 1, 2, -18, 16
1491432637203,-2, 13, 2, 5, 3, -4, 4, -18
1491432637204,5, 9, 8, 4, 1, -1, -12, 8
1491432637210,3, 2, 0, -4, -3, 1, 4, 5
1491432637219,-3, -6, -11, -4, -2, 1, 4, -2
1491432637233,-4, -3, -3, -1, 0, -6, 4, -4
1491432637241,-3, -7, -4, -4, -1, 4, 14, -3
1491432637249,-2, -8, -5, -4, -1, 3, 6, 20
1491432637264,-2, -6, -1, -3, 1, 4, 0, 15
1491432637271,-4, -2, 0, 0, -2, -3, -16, -11
1491432637278,2, 2, -2, 0, -2, -3, -8, 5
1491432637279,-1, -14, 2, 1, -2, 4, 6, -4
1491432637293,-5, -5, -4, -3, -3, 1, 7, -13
1491432637301,1, 7, 4, 4, 0, -6, -5, -4
1491432637309,-1, 2, -1, -1, -1, 1, 6, 6
1491432637325,2, 24, 5, -2, -4, 0, 1, 3
1491432637330,-11, -7, 2, 0, 0, -1, -4, -14
1491432637331,16, 2, -2, -3, 0, -1, 3, -10
1491432637339,-3, 3, -2, 0, 1, -2, 0, 15
1491432637340,-2, -9, -5, 2, 5, -4, 5, 22
1491432637355,2, -25, -4, -1, -1, 0, -10, -10
1491432637361,0, -2, 0, 2, -3, -5, -3, -8
1491432637368,-3, -8, -4, -5, -4, -4, -7, -2
1491432637370,-4, -5, -4, -1, -1, -3, 10, 7
1491432637384,-1, 2, 14, 7, 3, -4, -4, -13
1491432637385,4, 11, -4, -3, 3, -5, -11, -4
1491432637392,-6, -3, -6, -4, 0, 3, 4, -8
1491432637399,0, 2, -4, -3, -1, 2, 5, -5
1491432637413,8, 12, 6, 3, 0, -6, -9, -4
1491432637421,-10, 5, -2, -1, -1, -3, -1, -7
1491432637429,-28, 18, 11, 11, 6, 1, -3, 1
1491432637444,-4, -17, -9, -6, -3, 3, -1, -1
1491432637450,4, 12, 2, 1, -5, -4, -8, 0
1491432637460,4, -8, -6, 1, 1, 2, -1, 13
1491432637461,-9, -15, -3, -1, 1, 0, 7, -10
1491432637473,8, -4, 4, -3, -4, -2, 2, -39
1491432637481,18, -11, -3, -3, -2, 2, -8, -1
1491432637489,-3, 4, 2, 3, 2, -1, 2, 9
1491432637504,-7, 3, 4, 4, 0, -2, -1, 0
1491432637510,-10, 15, 2, 3, 0, -5, 0, 2
1491432637519,-5, -4, -4, -3, -5, -3, 4, 8
1491432637533,4, -13, -14, -11, -2, -1, 5, 16
1491432637541,-17, 15, 8, 5, 2, -5, -11, -22
1491432637542,4, -6, -3, -1, 0, -1, 0, 1
1491432637550,-5, -11, -5, 0, -1, 4, 1, 5
1491432637564,3, 0, 0, -2, -2, 0, -3, 5
1491432637570,0, -18, -7, -6, 0, -2, 1, 5
1491432637579,1, -2, -3, 0, -3, -3, 8, 3
1491432637593,3, -4, -3, -1, -3, 4, 8, -1
1491432637602,-25, -3, 0, -1, -2, -5, -6, -11
1491432637610,-7, 15, 9, 7, 0, -5, -6, -7
1491432637623,5, -1, 1, 2, 1, 2, 6, 1
1491432637624,3, 0, -2, -3, 2, 3, -1, 2
1491432637630,-22, 5, -2, -3, -3, -3, -1, -8
1491432637631,27, -5, -3, -5, -6, -3, -3, 10
1491432637639,-6, -1, 1, 2, 1, 0, -1, 0
1491432637653,-1, 19, 4, 2, 2, -1, 5, -2
1491432637662,0, -11, -6, -3, -1, -2, 1, -1
1491432637668,-6, -7, 1, 0, 0, -1, 1, -1
1491432637669,-3, 2, 0, -1, -2, 1, -10, 0
1491432637685,3, 1, 0, -2, 0, 1, -2, 3
1491432637691,17, 7, 5, 3, 1, 1, -3, 5
1491432637692,-30, -30, -5, -3, 2, -2, -4, -8
1491432637699,-5, 5, 1, 1, -4, -4, -9, -6
1491432637714,16, 26, 1, 0, -3, -3, 3, 14
1491432637721,-3, 2, 2, 1, 3, -1, -6, -2
1491432637737,-2, 5, -1, -2, 2, 5, 7, 5
1491432637743,3, 8, -4, -4, 0, -3, -14, -5
1491432637752,-8, -17, -6, -2, -1, 1, -1, 0
1491432637760,-1, -23, -4, -1, -2, -1, 3, 3
1491432637776,-6, -18, -4, -2, -2, -5, -7, -8
1491432637777,29, 68, 14, 1, -2, -3, 0, -2
1491432637781,3, 12, 6, 3, 3, 0, -1, -5
1491432637797,-22, -17, -3, 0, -1, 1, 2, -3
1491432637804,-1, 2, -1, 2, -1, 2, -4, -2
1491432637814,-2, -19, -3, -3, 0, -5, -2, -5
1491432637819,1, -12, -3, 1, 0, -1, 5, 0
1491432637834,3, -1, 5, 6, 5, -3, -13, -4
1491432637841,-3, -13, -3, -4, -5, -2, 8, 3
1491432637859,-5, -12, 0, -1, -1, 2, -1, -1
1491432637865,-3, -5, -4, -5, -9, -1, -1, -2
1491432637872,2, -3, -9, -4, -3, -1, -6, -1
1491432637879,-2, 9, 0, -1, 1, 0, -2, -7
1491432637895,-3, -19, -12, -5, 2, 2, 6, -4
1491432637901,3, 11, 4, 3, 2, -2, 6, 1
1491432637917,-2, -5, -3, -5, -5, -2, 3, -1
1491432637924,1, -2, 3, 2, 3, 1, 2, 3
1491432637933,2, 10, 8, -1, -1, 1, -14, 3
1491432637939,-2, -8, -2, 0, -2, 1, -5, 2
1491432637954,-7, -11, -6, -4, -4, -1, 1, 1
1491432637961,3, 6, -4, -4, -2, -1, 0, -2
1491432637977,2, -8, -5, -1, 1, 0, 9, 0
1491432637984,2, -1, 3, 0, -1, 0, 1, -1
1491432637992,-1, 9, 2, 1, 1, -2, -3, 0
1491432637999,-3, -1, 0, -2, -5, 2, -7, -4
1491432638015,-1, -2, 2, 3, -3, 1, 0, -1
1491432638022,0, -5, -3, -3, 3, -1, -2, -2
1491432638037,0, -3, 0, 4, 6, 0, -3, -5
1491432638044,3, 13, 4, 3, 0, 0, -1, 1
1491432638054,0, -11, -2, -2, -2, -5, -3, -11
1491432638061,0, 2, 1, -1, 1, -3, 0, 1
1491432638062,-3, -1, -4, -1, 3, 0, -2, 4
1491432638076,-4, -2, -2, 0, 0, 0, -1, -3
1491432638077,2, 3, 1, 0, 0, 0, 2, 8
1491432638081,-1, -4, -2, 1, 1, -3, 0, -2
1491432638096,-3, -14, -2, 1, 2, -1, 1, 5
1491432638097,-1, 8, -2, 1, -2, -2, -2, -5
1491432638105,3, 8, 3, 2, -2, -1, -1, 0
1491432638112,-2, -9, -5, -2, -1, 0, -16, 3
1491432638119,1, 5, 1, 0, -3, 0, 1, 0
1491432638134,-2, -8, -1, -2, 2, 3, 2, 4
1491432638141,-4, -10, -3, -2, 0, -2, -8, -5
1491432638157,1, 5, -4, -1, -1, -2, 4, 1
1491432638164,0, -1, 1, 0, -2, -1, 4, 1
1491432638172,-2, 0, 1, -1, -5, 0, 3, 0
1491432638188,0, 15, 2, 1, -1, 0, 0, 2
1491432638194,-1, -5, 2, 0, 1, 2, 0, 3
1491432638195,3, -1, -1, 0, 0, -1, -1, -2
1491432638201,-1, 3, -1, 0, -2, -2, -2, -1
1491432638218,3, 6, 8, 1, 2, -2, 4, -1
1491432638224,0, 0, -1, -3, 0, 0, 0, -1
1491432638239,-3, -2, 3, -2, 1, -5, -3, -4
1491432638246,0, -11, -2, 0, 0, -1, -3, -2
1491432638254,-3, -6, -2, -1, -1, -2, 0, 3
1491432638261,-4, -12, -4, -2, -4, 1, 5, -1
1491432638278,-1, -4, -6, -1, -3, 0, -3, -5
1491432638283,5, -11, -5, 0, -1, 0, -2, -3
1491432638293,-5, 0, 3, 0, 0, 1, 1, -2
1491432638309,-9, -9, -2, -4, -2, -2, 0, -3
1491432638314,2, 4, 5, 2, 4, 2, -2, -3
1491432638315,-3, -7, -4, -2, 0, 1, 1, 1
1491432638321,-2, -6, -4, -1, 3, -5, -14, -1
1491432638337,-5, 2, -4, -4, -3, -1, -4, -4
1491432638343,-2, -5, -8, -4, -4, 2, -1, -3
1491432638344,4, 12, 6, 5, 1, 2, 1, 0
1491432638351,-3, -13, -3, -1, -4, 0, -2, -2
1491432638352,5, -3, -6, -3, -3, -1, 1, 2
1491432638366,-4, -2, -1, 0, -2, 1, 5, -1
1491432638374,1, 7, 10, 4, -2, 0, 2, 1
1491432638381,1, 11, 3, 0, 0, 0, 3, 2
1491432638396,-2, -4, -4, -3, -1, 0, 2, -1
1491432638397,-2, 4, 4, 0, -2, -1, -2, -3
1491432638404,1, -4, -5, -6, -2, -4, -3, -4
1491432638419,0, 1, -7, -5, 1, 0, 0, 2
1491432638426,4, -16, -9, -4, -2, -2, -1, -2
1491432638434,5, 9, 2, 0, -2, 1, 1, 5
1491432638442,-9, 4, -3, 5, 0, -4, -3, -5
1491432638457,2, -6, -6, -20, -8, -4, 0, 0
1491432638463,3, 2, 2, 16, 4, 2, 11, 3
1491432638474,-4, -5, -3, 2, 1, -4, 0, -2
1491432638486,-11, 8, 1, -5, 1, -1, -2, -5
1491432638494,-5, -12, 1, -5, 2, 0, -3, -2
1491432638501,-5, -25, -7, -4, -3, 1, -1, -1
1491432638516,0, 1, -4, -5, -4, -1, 1, 0
1491432638517,-4, -2, -2, 7, 0, 0, -5, -8
1491432638524,0, 5, 0, -3, -2, 0, -3, 1
1491432638531,1, -10, -3, 1, -1, -4, -6, -1
1491432638546,-4, -9, -2, -9, -4, -1, 0, -2
1491432638555,-1, 12, 11, -4, 2, 0, -6, -5
1491432638556,-2, -8, -5, 1, 4, 2, -2, 1
1491432638561,-4, -2, 5, -4, -3, -1, -1, 2
1491432638577,3, 5, 6, 3, 1, -1, 7, 0
1491432638583,-2, -6, -2, 1, -1, 0, 0, -1
1491432638591,1, 3, -1, -8, -2, 0, -1, -2
1491432638592,-1, 8, 1, 12, 1, -4, -1, -2
1491432638607,4, 10, 2, 0, 3, 1, 0, 1
1491432638614,9, -8, -6, -9, -3, 2, 2, -1
1491432638621,0, -13, -2, 0, -2, -4, -3, 0
1491432638636,-12, -10, -6, -2, -1, -1, -1, -6
1491432638644,4, 9, 1, -6, 1, -1, -4, -3
1491432638652,1, 13, 4, -3, 0, 1, -4, -1
1491432638666,-7, -1, 6, 4, -1, 0, -2, -3
1491432638674,0, -3, -3, 10, 3, 0, 6, 3
1491432638681,1, -2, -2, -2, -3, -1, -5, -4
1491432638697,-3, 3, -2, -5, -4, 2, 0, 2
1491432638703,31, 14, 2, -2, -2, -1, 1, 6
1491432638711,2, -5, -3, -19, -5, 0, -3, 0
1491432638726,-14, -3, -1, -7, -2, -3, 1, -3
1491432638734,10, 9, -1, -7, -4, 1, -3, -1
1491432638741,-2, -3, -6, 0, 0, -1, -3, 0
1491432638757,-11, -1, 5, 5, -2, -3, 0, 0
1491432638763,2, 1, 0, -9, -1, 0, 14, 4
1491432638764,-9, -3, -1, 4, 1, -3, -15, -4
1491432638771,4, 14, 0, -8, 1, 1, 0, 0
1491432638772,-3, -1, -1, 6, 1, 1, -2, -3
1491432638786,-5, 3, -2, -14, -7, 5, 3, 4
1491432638800,-10, -2, -4, -3, -3, -5, -2, -3
1491432638801,-11, -9, -4, 4, -1, -3, 6, -3
1491432638817,-2, -3, -5, 4, 2, -2, 1, -4
1491432638824,-18, 13, -2, -8, 1, 4, 4, 0
1491432638832,10, -3, 0, 17, 7, -3, -19, -3
1491432638846,14, -8, -3, 4, -2, -4, -6, 4
1491432638854,1, 1, -3, -3, -4, -3, 4, 4
1491432638862,42, 1, -1, 3, -2, -5, -1, 2
1491432638877,-5, 10, 2, -2, 2, 4, 4, 2
1491432638883,-11, -1, 1, 0, -1, -1, 5, -4
1491432638893,9, 5, 2, 0, 0, -1, 5, 3
1491432638906,-13, 11, 2, 0, -1, 4, 0, -3
1491432638914,-15, 4, 0, 15, 0, -3, -11, -16
1491432638921,4, -3, -2, 2, 2, 0, 2, -1
1491432638936,-33, -12, -8, -13, -1, -2, -3, -2
1491432638937,1, -2, 0, 5, -1, -2, 3, 2
1491432638944,-5, -18, -5, -1, -3, -1, 1, 2
1491432638951,-12, -9, -1, -9, -5, -1, 3, 2
1491432638966,-53, -13, -5, -2, 1, -2, 1, -6
1491432638974,3, -8, 2, -5, 1, 2, 3, 4
1491432638981,13, 2, 1, -1, 1, -1, -1, 4
1491432638996,-18, -2, -1, -12, 3, -1, -3, -6
1491432639003,-19, 1, 4, 6, -1, 1, -3, -2
1491432639011,3, -4, -1, -7, -4, 1, 2, 2
1491432639027,3, 1, 1, -2, -1, 0, 0, 1
1491432639035,-7, -3, -1, 0, 0, -1, -3, 1
1491432639041,50, 13, 4, -1, 0, 2, 1, 4
1491432639056,11, -3, 1, 19, 5, -3, -3, -1
1491432639064,17, 5, -1, 0, -1, -4, -1, 4
1491432639079,0, -7, -3, -4, -3, -4, 5, 3
1491432639086,10, 2, -1, 1, -1, 0, 2, 0
1491432639096,7, 2, -3, -3, 0, 1, 3, 6
1491432639109,19, -3, 1, -7, -4, 1, 2, 16
1491432639118,-31, 2, 0, 11, -5, 1, -4, -29
1491432639119,30, -2, -4, -8, -3, 3, -1, 10
1491432639123,-4, -6, -3, -3, -2, -2, -4, -2
1491432639139,-12, -1, -2, -8, -2, -1, -2, -6
1491432639150,-15, -6, -6, -2, 1, -5, -5, -14
1491432639154,5, 1, 0, -2, -1, -4, 1, 2
1491432639169,-20, 1, -4, 1, 2, -3, -4, 7
1491432639177,-1, -10, -6, -2, -3, 0, 6, -2
1491432639183,-2, 2, 1, 0, -2, 1, 6, 4
1491432639184,-7, -7, -3, 1, 0, -1, -4, -7
1491432639199,-27, -20, -4, -2, 2, 0, -4, -1
1491432639206,-3, -3, 1, 2, 2, 4, 2, 2
1491432639214,32, 3, 1, 1, -4, -1, 1, -2
1491432639229,-22, -3, 0, -1, -1, -2, -7, -8
1491432639237,26, 0, 1, 0, 0, -3, -2, -4
1491432639238,-6, 10, 0, -2, 1, -2, -2, 3
1491432639244,-2, -2, -3, -1, -2, -2, 1, -3
1491432639258,-11, -4, 0, 0, -1, -2, -4, 3
1491432639266,-7, -10, -6, -1, -1, 0, 7, -8
1491432639274,7, 4, -3, 1, -1, 1, -3, -6
1491432639289,5, 7, 2, 1, -1, 1, 0, -3
1491432639297,18, 6, 4, -2, -2, -2, -6, -6
1491432639303,-7, -15, -4, -2, -1, -1, 2, 16
1491432639304,-53, 4, 3, 1, 1, -2, -2, -5
1491432639318,15, -3, -4, -1, 0, 1, 5, 9
1491432639319,-3, -1, -1, 0, -2, 1, 0, 2
1491432639326,18, -3, 0, 0, -2, 3, 3, 2
1491432639334,-9, 12, -1, 0, -2, 1, -6, -2
1491432639349,4, -10, 2, 0, 1, -3, -1, -7
1491432639356,3, 1, -1, -2, -4, -4, 6, 1
1491432639357,-9, -4, -1, 0, -3, -4, 1, -1
1491432639364,-8, 4, 0, -2, 0, -4, -1, 4
1491432639378,-17, 4, 1, 0, 3, -1, -1, -6
1491432639386,36, 1, -2, -4, 0, 2, -1, -2
1491432639394,-24, -2, 1, 0, 0, -2, -5, -7
1491432639409,13, 1, -1, 2, -2, -2, -2, 1
1491432639423,-6, -17, -6, 0, -2, 1, 1, -2
1491432639424,52, 6, 1, 2, 0, 1, 6, 15
1491432639439,1, -21, -2, 0, 0, -2, 2, 25
1491432639446,8, 27, 4, 0, 0, 1, -1, -4
1491432639447,-11, 5, 3, -1, -1, 2, -2, -13
1491432639454,21, 2, 0, -2, -3, -1, -3, -5
1491432639469,-42, -4, -1, -2, -2, -4, -1, -1
1491432639479,-12, 0, -1, -1, 0, -2, 1, -9
1491432639484,-14, 13, -1, 1, -3, 3, 3, -13
1491432639499,21, 4, 0, -1, 3, 0, -4, -36
1491432639506,8, -11, -7, -1, -1, -6, -14, -6
1491432639515,17, 0, 1, 0, 1, 0, 1, 5
1491432639529,-16, -3, -1, 1, 1, 2, 5, -6
1491432639530,20, 4, -1, 0, -1, 0, -4, 6
1491432639538,4, 0, -2, -3, -4, -2, -3, 9
1491432639543,3, -3, -1, 0, 1, 0, 3, 19
1491432639558,-8, 2, -2, -1, -1, 0, 3, 3
1491432639566,-4, -6, -1, -2, 0, 0, -1, -3
1491432639574,30, -3, -3, 0, -2, -2, 3, -1
1491432639589,-26, 6, 2, -1, 2, 0, -5, -12
1491432639596,-24, 5, -3, -1, -1, -1, -11, -18
1491432639603,34, -6, -4, -2, -5, 1, -1, 10
1491432639604,-9, -4, 2, 0, -2, -1, -6, -26
1491432639619,-6, 2, 0, -1, -2, 1, -15, -14
1491432639633,-4, -6, -5, 0, -1, 3, 4, 5
1491432639635,-1, 0, -1, -1, 1, 2, 11, 6
1491432639649,23, -4, -4, -2, -3, -4, 1, 3
1491432639663,5, -4, -1, -1, -3, -2, 3, 11
1491432639665,-13, -7, 3, 1, 0, -2, 6, 22
1491432639679,-30, -13, 0, 1, 2, 2, 6, 3
1491432639686,3, -8, -6, -2, 1, 1, -1, 16
1491432639694,-5, -4, -1, -2, -1, 0, -3, -9
1491432639709,-24, -8, -2, -3, -3, 1, 2, -15
1491432639717,0, 2, -2, 0, 1, -1, 4, 11
1491432639724,-17, 2, -3, -2, 0, -2, -4, -2
1491432639740,-16, -6, 0, -1, -1, -4, 3, 15
1491432639741,0, -2, -2, 0, -4, -3, -5, -22
1491432639746,18, 3, -1, 0, -1, -2, 2, 2
1491432639754,13, 3, -2, -2, -2, -3, -2, 4
1491432639769,12, 14, -2, -1, -3, -1, -3, -9
1491432639776,21, -16, -3, 0, -1, 2, 1, 17
1491432639777,-22, 1, -1, -1, 1, -2, -1, -1
1491432639783,9, -4, -2, 0, -1, -3, 0, 9
1491432639798,-4, 11, 3, 0, 1, -1, -10, -12
1491432639806,12, 0, -2, -3, -1, -4, -1, 8
1491432639814,9, -3, -1, 0, -2, 1, 9, 20
1491432639829,7, -9, -6, -2, -4, 0, -8, 0
1491432639836,15, 13, 4, 1, 3, 2, -2, 5
1491432639844,-22, -8, 0, 0, -1, 1, 4, -8
1491432639859,-42, -6, -4, -2, -1, -2, -1, -10
1491432639867,-13, -4, -2, -3, 0, -3, -3, -13
1491432639874,12, 0, 2, 0, 0, -1, 1, -2
1491432639889,-10, 2, 4, 2, -2, 0, 1, -2
1491432639896,8, 0, -3, -4, -1, 2, 2, 4
1491432639904,22, 28, 10, 3, 4, 5, 3, 4
1491432639918,-21, -9, -6, -4, -2, 0, -1, 1
1491432639919,30, -11, -3, -1, -2, -1, -3, 20
1491432639926,9, -6, -4, -3, -3, 0, 4, -1
1491432639934,13, -4, -1, -2, -7, -3, 3, 5
1491432639949,-5, -2, -3, -2, -3, -2, -2, 3
1491432639957,-14, -2, -3, 0, 1, 1, 0, -14
1491432639964,58, 2, 0, -1, 0, -2, 0, 16
1491432639978,28, 6, 0, 2, 1, 1, 6, 20
1491432639979,-23, -5, 3, 0, 1, -3, 2, -7
1491432639986,-4, -2, -6, -1, 0, 1, -3, -8
1491432639994,13, -4, -4, -2, -3, -1, -7, 2
1491432640009,-3, 0, 0, 0, -1, 0, -2, 3
1491432640016,0, 12, 4, 1, -1, -3, 1, -4
1491432640030,4, -1, 1, 2, 1, -1, 1, 5
1491432640031,-12, -7, -1, 1, -2, -1, 0, -23
1491432640039,1, -3, -5, -4, -2, -3, -11, -19
1491432640046,-13, -6, -3, -2, -1, -1, -5, -11
1491432640061,-11, 0, 1, 0, 1, 1, 7, 0
1491432640070,6, -2, -1, -2, 0, -3, -13, 8
1491432640076,13, -2, -4, -1, -2, -2, 2, 3
1491432640077,-1, -7, -5, -3, -5, -2, 1, 0
1491432640090,-10, 5, 0, 0, 1, -1, 7, 15
1491432640091,-16, -7, -4, -3, -1, 0, -5, -13
1491432640098,-4, -2, 1, -1, 0, 0, -4, -5
1491432640099,-15, -4, 0, -1, -3, 1, 2, 16
1491432640106,6, -4, 0, -2, -3, -3, 1, 16
1491432640122,-24, -12, -3, -1, -1, -2, -1, -8
1491432640129,-29, 0, 4, 3, 2, -2, 7, 5
1491432640136,-11, 4, 1, 0, 1, -1, -1, 27
1491432640151,17, -2, -3, -3, -2, -4, 3, 4
1491432640152,-70, -7, -3, -2, -1, -2, -3, -30
1491432640159,24, 1, -4, 0, -3, 2, -3, -4
1491432640166,8, -4, -2, 0, 1, -1, -1, 6
1491432640181,9, 0, -3, -1, 3, -7, -16, 19
1491432640191,24, 0, 0, 1, -3, -4, 1, 18
1491432640196,18, -1, 0, -1, 1, 3, 8, 18
1491432640211,4, 0, 1, -5, -2, 0, -13, -19
1491432640218,-17, -1, -1, 0, 2, 2, 2, -8
1491432640226,31, 5, 1, -1, -1, 1, 9, -3
1491432640241,10, -4, 1, -2, 0, 0, -3, -11
1491432640249,7, -3, -3, 0, -3, 0, 1, -11
1491432640263,10, 3, 1, 0, -4, -1, 4, -20
1491432640270,-11, -3, -3, 1, 1, 0, 0, 7
1491432640279,-9, -4, -1, -3, -1, -2, -6, -8
1491432640286,0, 0, -2, -2, -2, 0, 0, -2
1491432640301,-7, -2, -3, -3, 0, -1, 5, -17
1491432640309,-4, -2, -1, 0, 2, 0, -7, -4
1491432640316,4, -7, -2, -3, -2, -1, 2, -1
1491432640331,-4, -7, -3, -1, -1, 3, 3, 9
1491432640339,-2, -2, 2, 2, 0, 0, -9, -29
1491432640346,-1, 7, 2, -1, -2, 0, -1, -3
1491432640368,-7, 2, 0, -1, -3, 0, -2, 7
1491432640370,22, -1, -4, -2, 0, -2, 1, 6
1491432640376,-22, -4, -2, 0, 0, -3, -1, 26
1491432640390,17, -6, -1, 0, -1, -1, -9, -4
1491432640398,13, 4, 1, 2, 3, 0, 4, 9
1491432640406,-4, 3, 0, -3, -1, -1, -16, -4
1491432640421,0, 5, 4, -1, -7, 0, 4, 4
1491432640429,-7, -16, -2, 1, 1, 1, 10, 14
1491432640436,0, 0, 0, 1, 2, 2, -3, 10
1491432640450,-4, -6, -4, -3, -3, 1, 9, 19
1491432640459,21, -3, 0, 1, -2, -2, 7, -2
1491432640466,-37, -1, -2, -2, -3, -6, -1, -19
1491432640481,-64, -14, -8, -5, -6, -4, -4, -15
1491432640490,3, -7, -4, 0, 1, -3, -1, -3
1491432640499,12, 5, -3, -2, 2, -2, -7, -1
1491432640510,0, -2, 0, -2, -1, 2, 7, 17
1491432640518,17, 0, -6, -1, -1, 0, -5, -24
1491432640526,-19, 10, 6, 5, 0, 0, -1, -5
1491432640541,23, -3, 1, 0, -2, 0, -1, 17
1491432640549,-3, -5, 0, -2, -2, 0, -5, -5
1491432640556,0, -4, -2, -4, -3, -2, 3, 0
1491432640557,5, 5, -2, -2, 3, 1, -1, -5
1491432640570,-23, 2, 1, -1, 1, 1, -2, -5
1491432640571,8, 0, 1, 1, 1, -1, 2, 6
1491432640580,5, -1, -3, -3, -3, -2, -8, -9
1491432640587,-3, 3, 0, 2, 0, -3, 2, -14
1491432640601,16, -2, 2, 0, 1, 1, 3, 15
1491432640608,28, 0, 2, 1, -2, 0, -11, 3
1491432640617,-13, -4, -3, 0, 0, 3, 3, -20
1491432640630,18, -2, 1, 0, -3, -3, -7, 30
1491432640631,-17, 0, -3, -1, 2, 1, 3, 1
1491432640639,-14, -2, 1, -1, -3, -4, -1, -16
1491432640646,34, 0, -4, -2, -2, -2, 0, 7
1491432640661,3, 1, 3, 2, -2, -2, 4, -2
1491432640669,-8, 2, -1, -1, -1, -3, 0, -6
1491432640676,5, -2, -6, 3, 1, 0, 0, 6
1491432640690,6, -3, 1, 0, 3, -1, -5, -9
1491432640691,9, 1, 0, -1, 3, 3, 2, -2
1491432640699,-32, -4, -2, -3, -2, -1, -10, -13
1491432640706,-16, -2, -5, -3, -2, 1, 1, -19
1491432640721,9, -2, 1, -2, -3, -1, 1, 1
1491432640730,31, -1, 0, 1, -2, 2, 9, -10
1491432640736,1, -5, -3, 0, 0, -1, -25, 19
1491432640737,-4, -1, 1, 2, 0, 0, 0, 5
1491432640751,-12, -2, 1, 1, -2, -5, -6, -26
1491432640758,2, -2, 1, 0, -1, 2, 5, -2
1491432640759,5, -1, -5, -1, 0, 0, -1, 17
1491432640766,-23, 0, -4, -1, -1, -1, 0, 11
1491432640782,22, 2, 0, -2, 1, -2, -2, -4
1491432640783,-12, 3, 1, 0, 2, -1, -5, -11
1491432640790,-9, -5, -5, -2, 0, -1, -2, 5
1491432640796,8, 26, 7, -1, -2, 0, 14, -4
1491432640810,3, -8, -1, 0, -3, -1, -20, -19
1491432640811,-20, -8, -4, -2, -3, -4, 0, 3
1491432640818,5, 12, 5, 1, -2, -1, 5, 0
1491432640819,9, -13, -2, -1, -2, -3, 3, 13
1491432640826,3, 3, 3, 2, -1, 3, -2, 3
1491432640845,6, -10, 3, -1, 1, 1, -3, -2
1491432640848,-4, 4, 3, 0, 2, 0, -1, -3
1491432640857,-12, 0, 0, -1, 4, 0, -6, 2
1491432640871,-2, -2, 1, -2, -2, -1, 0, 1
1491432640879,6, 1, -2, 0, -5, -1, -10, -2
1491432640886,4, -8, -4, -4, -1, -2, -4, 2
1491432640901,0, -1, -2, -1, -1, 2, 5, -8
1491432640909,8, -1, -2, 1, -1, 0, -8, 0
1491432640916,14, 9, 3, -1, 3, 2, 2, 0
1491432640931,40, -3, -2, 0, 0, -2, -4, 0
1491432640947,29, -4, -5, -1, 0, -1, 4, 6
1491432640953,-5, 12, 4, 3, 1, 2, 0, -3
1491432640962,-3, -14, -6, -2, -5, -3, -5, 2
1491432640975,-14, -11, -7, -3, -4, -3, -1, -2
1491432640992,-12, -4, -1, 0, 0, 1, -2, -5
1491432641000,-3, 9, 5, 2, 1, -2, -2, -27
1491432641013,21, -3, 1, -3, -4, -5, -6, 22
1491432641021,4, 5, -2, -3, -1, -4, -1, 27
1491432641029,-35, -15, -7, -2, -2, -3, -6, -19
1491432641043,-11, -2, 2, 1, 4, 3, -2, -4
1491432641044,19, 1, -2, -3, -2, -2, 2, 1
1491432641051,-18, -4, -1, -1, 0, 0, -7, 0
1491432641059,-30, -7, 2, 0, 0, -2, 1, -19
1491432641074,2, 0, -1, -1, -2, -1, 3, 2
1491432641082,-38, -10, 2, -1, 1, 1, 7, -14
1491432641089,-11, 4, 2, 1, 3, 1, 2, -16
1491432641103,14, 3, -4, -3, -4, 1, 5, 25
1491432641104,-32, -13, -5, -1, -6, 3, 0, 7
1491432641111,-8, 2, -1, -1, -3, 0, 7, -1
1491432641119,-9, -7, -6, -1, -3, -3, 8, 20
1491432641133,12, -5, -3, 0, 5, 1, 1, 3
1491432641141,-14, 2, -3, -2, -1, 0, 1, -5
1491432641148,10, 1, 0, 0, -2, 1, 3, 5
1491432641163,-26, -1, 1, 3, 2, 5, -5, -31
1491432641164,11, -3, -2, 2, 1, 0, -2, 21
1491432641171,-4, -2, -1, 1, 0, 1, 1, 9
1491432641179,11, 1, -3, -1, 2, -3, 5, -33
1491432641193,-5, 19, 7, 1, 1, -3, -1, 0
1491432641202,-6, -6, -3, -2, 0, 4, -5, -5
1491432641209,5, 28, 9, 0, -3, 2, -2, -27
1491432641224,1, 14, 6, 2, -4, -3, -3, -13
1491432641231,32, 24, -1, -4, -5, -8, -6, 61
1491432641239,6, -13, -5, -2, -2, -3, -7, 25
1491432641253,-9, -14, -2, 0, 5, 5, 5, -11
1491432641261,1, 3, -3, 0, 0, -2, 4, 3
1491432641269,3, -13, -6, 0, 1, -3, 7, -8
1491432641284,22, -4, 1, -2, -2, 0, 1, 3
1491432641292,-3, -9, -1, -1, 0, 3, 7, 3
1491432641299,12, 7, -4, -3, -2, -1, -5, -3
1491432641313,12, -2, -1, 0, 0, 1, -2, 15
1491432641321,-9, -4, 0, 0, 0, 0, 4, 10
1491432641329,-2, -11, -5, -1, -2, 2, 3, -26
1491432641343,8, 8, 1, 1, -2, -6, 6, 12
1491432641344,-10, -1, -1, -2, -1, -4, -7, -22
1491432641351,-4, -5, 0, 0, 0, -1, -3, -34
1491432641359,-15, 0, -1, -2, -3, -2, 0, -4
1491432641373,-1, -4, -1, 1, -1, 0, -4, 8
1491432641381,-1, -2, 0, 0, 0, 3, -4, 5
1491432641388,-9, -3, -1, -2, -4, -5, -6, -5
1491432641405,5, 0, 0, 0, 1, 0, -6, -11
1491432641412,-5, -3, -1, -2, -2, -3, 2, 16
1491432641419,-11, -8, -3, 0, 0, 3, 2, -3
1491432641433,7, 8, -3, 1, 2, -2, 0, 1
1491432641441,9, -1, -1, 1, 1, -1, -3, 0
1491432641448,0, -1, -1, -1, -5, 0, -10, 1
1491432641464,-13, -3, 1, -1, -2, 0, -11, -4
1491432641471,-3, -6, -2, -3, 0, -1, 0, 1
1491432641479,6, -3, -4, -1, 1, 0, 8, 2
1491432641493,0, -5, -2, 0, -1, 2, -2, 0
1491432641502,-15, -4, -3, -1, 0, 0, 4, -5
1491432641509,12, 24, 3, 1, 0, 2, 3, 1
1491432641523,-2, -8, -1, -3, -5, -4, -6, -5
1491432641531,-16, -17, -5, -2, -2, -5, -6, -24
1491432641541,18, 1, 2, -1, -1, -2, -2, 3
1491432641553,-5, 4, 2, 3, 1, 0, 2, 5
1491432641561,-53, -6, -6, -1, 1, -2, 6, -23
1491432641568,9, -2, 2, 1, 2, 2, -7, 48
1491432641569,3, -14, -4, -2, 1, -3, 3, 12
1491432641583,8, 3, 1, -2, 4, 3, 6, -20
1491432641584,13, 8, 5, -2, 0, 4, 1, 36
1491432641591,-4, 3, 0, -3, -4, 0, -1, -20
1491432641601,7, -1, 0, -2, -3, -3, 2, -5
1491432641613,-18, 47, 9, 1, -1, 0, -2, 11
1491432641621,4, -12, -1, 1, -1, -4, -5, -17
1491432641629,-13, -18, -6, 0, 0, 0, -2, -4
1491432641643,4, 14, 2, 1, -1, 3, 1, 12
1491432641651,-11, -9, -6, -3, -3, -2, -10, 2
1491432641659,5, 19, 4, 1, -1, -1, -1, -3
1491432641674,-21, -26, -9, -3, -1, -2, -1, -31
1491432641681,-12, -15, -6, -3, -2, -2, 1, 28
1491432641689,27, 10, 2, -1, 1, -1, -3, -1
1491432641704,-34, -23, -7, -3, 0, -4, 1, 15
1491432641705,1, -4, -2, -1, 4, 1, -1, -22
1491432641712,17, -7, -3, 0, -1, 2, 4, 26
1491432641726,14, -6, -1, 1, 2, 1, -1, 8
1491432641733,6, 0, -1, 2, 1, 1, -3, -3
1491432641742,-31, -28, -10, -6, -5, -5, -12, -13
1491432641749,1, -21, -3, -4, -3, -5, 8, 14
1491432641763,2, -7, -2, 0, 3, 3, 6, 3
1491432641771,-3, -20, -7, -3, -6, 1, -3, -6
1491432641779,15, 5, -3, 1, -4, 0, -8, -36
1491432641793,5, 0, -1, -1, -1, 0, -1, 8
1491432641801,-8, 10, 2, 2, 1, -1, -8, -22
1491432641808,-5, -8, 2, -2, 3, -2, -3, -24
1491432641823,8, 11, 1, -3, 0, -3, 3, 20
1491432641831,25, 25, 6, 0, -1, 1, 4, 21
1491432641844,-8, 4, 0, 0, -1, -1, 8, 24
1491432641853,2, 3, -1, -1, 1, 3, 5, 7
1491432641861,8, 1, 12, 4, 2, 2, 3, 13
1491432641876,-11, 0, -3, 2, -2, -3, -2, 19
1491432641884,-17, 3, -4, -3, -6, -5, -6, -18
1491432641891,11, -3, -1, 1, 3, 1, -6, -22
1491432641906,10, -1, -3, 2, 2, 4, 2, 4
1491432641913,-3, 0, -2, -3, -2, -4, -3, 1
1491432641921,3, 10, -2, -3, -5, -2, -2, -3
1491432641935,-18, -6, -4, 0, 2, 1, -3, -6
1491432641944,23, -4, -4, -1, -1, -2, 2, 14
1491432641951,4, 6, -1, -1, -3, -1, 1, -1
1491432641967,20, -4, -4, -2, -3, -2, -8, -13
1491432641973,1, -7, 0, -1, -5, -3, 2, 18
1491432641981,-4, -15, -5, -2, 2, -6, -2, 30
1491432641997,4, -1, -2, -1, 2, -2, -2, -9
1491432642003,-2, -6, -1, -1, 1, -1, 2, -18
1491432642011,-10, -11, -4, -4, -3, -2, 1, 6
1491432642026,-2, 19, 2, 0, -1, 1, 2, -1
1491432642034,-20, 1, 1, -5, -5, -1, 0, -8
1491432642041,14, 3, -1, -1, -3, -1, -5, 3
1491432642055,-2, 4, -1, 1, 2, 0, -2, -2
1491432642064,-24, -10, -3, 0, -1, 2, 3, -14
1491432642071,-1, -18, -2, 0, 2, 2, 3, -1
1491432642086,7, 11, 4, 2, -2, 0, 2, -15
1491432642093,-16, -5, -1, -3, 0, -4, -4, -15
1491432642101,10, 19, 5, 2, 1, -6, -2, 11
1491432642115,28, 17, 7, 0, -1, 0, 2, 16
1491432642123,-18, -21, -7, -1, -3, 1, -4, -4
1491432642124,18, 8, -2, -2, 1, 2, 2, 10
1491432642138,4, 5, -3, -1, 0, 0, -8, -21
1491432642146,-11, -2, 1, -1, 3, 0, -7, 4
1491432642153,5, -3, 3, 3, 3, 0, 5, 28
1491432642161,-4, -11, -4, -2, -3, -3, 4, -4
1491432642175,-20, -15, 1, 0, -5, 0, 0, 4
1491432642184,2, -1, 0, 2, 3, 2, 6, -7
1491432642191,-2, 1, -3, -2, -2, 0, -10, -14
1491432642207,-14, -12, -3, -3, -3, -1, -4, -17
1491432642213,30, -8, -6, -3, -1, -2, 6, 31
1491432642221,-5, -5, 3, 2, -1, 1, 2, 12
1491432642251,23, -3, -3, 4, 3, 1, 2, 2
1491432642252,-24, 6, -1, -2, -2, 0, -1, -16
1491432642253,-2, -2, -2, -1, 1, -2, -13, -23
1491432642266,-13, -7, 1, 1, -1, -2, 10, 17
1491432642273,-17, 0, -1, -1, -3, -3, 2, -14
1491432642281,28, 1, -3, -3, -2, -2, -6, 31
1491432642295,-1, -2, -1, -3, -1, 0, 5, -3
1491432642304,-32, -4, -5, -2, -4, -3, -3, -13
1491432642311,-16, 16, 1, -1, 1, 2, -7, -28
1491432642326,10, -6, -2, -2, 2, 5, 11, 20
1491432642334,-8, 6, -1, 0, -4, -4, -5, 11
1491432642342,-3, 0, 1, 2, 6, -1, -2, -14
1491432642355,1, 11, 6, 0, -1, 1, -4, 4
1491432642365,6, -16, -6, 0, -2, -1, -3, 4
1491432642371,43, 25, 3, 1, 2, -2, -18, 35
1491432642386,3, -4, 4, 1, 0, -2, -2, -5
1491432642393,-33, 5, -4, -4, -5, -3, 6, -3
1491432642401,0, 0, -3, 0, -6, -2, -1, 4
1491432642418,-7, 7, 3, 0, 0, -1, 4, -10
1491432642423,17, -1, 0, -2, 0, 2, -3, 0
1491432642424,-3, -6, -4, -1, -2, -1, -5, -9
1491432642431,12, -31, -8, -1, -1, -1, -3, -7
1491432642453,19, 3, 1, -3, -1, 0, 1, 10
1491432642454,6, -23, -10, -2, -2, -7, -9, 4
1491432642461,-11, -4, -4, -1, -1, -4, -14, 12
1491432642475,0, -10, -3, -1, -1, 0, 7, -8
1491432642483,1, 23, 1, -3, 2, -1, 1, -10
1491432642491,-20, -6, -1, -2, -2, 2, 5, -6
1491432642506,-7, -3, -2, 0, -3, -2, -1, -2
1491432642513,-1, 12, -1, -1, -2, -6, 7, 4
1491432642521,6, -5, 1, 0, 3, 0, 6, -4
1491432642535,14, 13, 6, 3, 1, 1, 3, 3
1491432642543,-10, 10, -2, -5, -5, -1, -1, 1
1491432642544,-5, -13, -5, -1, -2, -1, -5, -7
1491432642552,-15, -16, -5, -1, -1, -3, 3, 0
1491432642566,9, -5, -3, 0, -1, 1, -3, -13
1491432642573,2, 19, 9, 0, 2, 3, 6, 12
1491432642581,22, -13, -2, -6, -5, -4, 0, -5
1491432642596,-8, -20, -6, -4, -4, -2, 5, -12
1491432642605,-13, -9, -4, -3, -2, 0, 0, -7
1491432642611,3, -14, -3, -1, -2, 1, -4, -2
1491432642627,22, 20, 3, -3, 1, -1, 5, 9
1491432642628,13, -6, 0, -2, -1, 1, -2, -4
1491432642633,-2, -5, -3, 0, 3, 1, -5, -4
1491432642642,-3, 8, 0, 1, -2, 0, 1, 2
1491432642655,24, -5, 3, 3, 2, -3, -7, 1
1491432642656,-2, 20, -2, -1, -1, 2, -4, -6
1491432642663,2, 6, 1, 0, -2, 4, 7, 6
1491432642674,2, -7, -7, -2, -2, -3, -8, -2
1491432642687,-28, -1, 1, 1, 0, -1, 8, -6
1491432642693,-30, -3, 1, -1, 3, -2, -7, -12
1491432642701,-6, -1, 0, 0, 2, -4, -2, -1
1491432642716,-9, 1, 2, 0, -2, -4, -2, 4
1491432642724,-13, -21, -7, -2, -2, 0, -7, -25
1491432642731,0, -9, -1, -3, -4, -1, -2, -1
1491432642746,6, -1, -2, -3, -5, -2, -4, 5
1491432642753,6, -2, -4, 0, -1, -1, 3, 6
1491432642761,1, -1, -1, 0, 2, -2, -16, 4
1491432642775,-10, -10, -1, 0, 0, -1, -2, -8
1491432642776,18, 6, 2, 1, -2, 0, 3, 13
1491432642783,-6, 6, -1, -1, -1, -1, -3, 2
1491432642798,-9, 2, 2, 1, 2, 0, 6, -8
1491432642806,-6, -16, -7, -4, 0, 1, -2, -4
1491432642813,3, -6, 0, -1, -2, 1, 2, -7
1491432642829,-17, -8, -3, -2, -2, -2, 10, 3
1491432642836,9, -6, -3, -1, 2, 0, 0, 1
1491432642846,16, 27, 2, 2, 0, -3, -2, 2
1491432642858,4, 13, -1, -1, -3, 4, 3, 9
1491432642866,-2, 4, 2, 1, -3, 1, -1, 8
1491432642873,1, -3, -1, -1, 2, 0, -2, 0
1491432642890,6, 11, 5, 2, 4, 0, 1, -6
1491432642895,-8, -10, 3, 0, 2, -2, -2, 0
1491432642904,-3, -17, -7, -2, 1, -1, -6, -15
1491432642918,-13, -3, -6, -1, -2, -2, -1, -24
1491432642926,9, -1, -2, -1, -3, -3, 0, 11
1491432642933,-13, -25, -8, -2, -5, -2, -6, -4
1491432642949,1, 1, -2, -1, -1, 1, 3, -2
1491432642956,-22, -9, -1, -2, -1, -2, 0, -3
1491432642964,-2, 7, 3, 5, 0, 1, 0, 2
1491432642978,8, 9, 1, 2, 2, 3, -1, 3
1491432642986,-5, -9, -3, -5, -2, 0, 0, -2
1491432642994,1, -5, -4, -1, -4, -4, 1, 2
1491432643009,1, -3, 1, -1, -3, 1, 2, -1
1491432643017,0, -4, 1, -2, -1, -1, 2, 1
1491432643024,-1, 2, -1, 1, 0, -3, 1, 1
1491432643039,8, 26, 6, 4, 0, 0, 0, 3
1491432643046,-2, 4, 4, 0, -1, 0, -1, 0
1491432643055,4, -2, 0, 0, -3, 1, 0, 0
1491432643069,-2, -25, -5, -2, 1, -1, -3, 1
1491432643083,1, 9, 0, -2, 1, -3, -3, 0
1491432643084,-5, -14, -7, 0, 2, -2, -7, -6
1491432643099,1, -5, -1, -3, -2, 1, -1, 0
1491432643106,-3, -3, -3, 1, 0, 0, 2, -2
1491432643114,-1, -4, 2, -1, -1, 0, -3, -2
1491432643129,0, 6, 1, 0, -3, -2, 1, 2
1491432643136,-1, 4, 0, 0, -2, -5, -2, -2
1491432643139,-3, -22, -8, -6, 0, -3, -2, 1
1491432643144,2, 13, 1, 0, -2, 0, -1, 1
1491432643159,0, -4, -5, -2, -1, -1, -4, -1
1491432643166,-6, 0, -1, -3, -1, 0, 2, -1
1491432643174,-1, 1, 2, 0, -1, 0, -2, -1
1491432643189,-1, -3, 1, 1, 1, -1, -2, 0
1491432643196,2, 2, 1, 1, 2, 0, 1, -1
1491432643203,1, 13, 4, -1, -1, -1, 0, -1
1491432643219,-1, 2, -4, -1, -2, 1, 2, 0
1491432643227,0, 2, 5, 0, 1, -2, 0, 0
1491432643234,-2, -6, -3, -1, -1, -4, -3, 0
1491432643248,-2, -9, -3, 0, 0, 2, 5, 1
1491432643249,2, -7, -5, -2, -2, 0, -5, 0
1491432643256,-1, 7, 2, 1, 1, 1, 0, -3
1491432643257,-5, -6, -6, -2, -3, -1, 3, -1
1491432643265,6, 19, 5, -1, -1, -2, -1, -1
1491432643279,3, -9, 1, 2, 2, 2, -1, 0
1491432643286,4, 4, 1, 2, 4, 3, 12, 0
1491432643301,0, 5, 4, -3, -2, -1, -4, -1
1491432643309,-2, -10, -3, -3, -6, -2, -1, -1
1491432643316,1, 9, 3, 1, -2, 1, 2, 1
1491432643323,-4, -9, -3, 0, -1, 1, -5, -1
1491432643340,2, 10, 3, 0, 1, -3, -7, -2
1491432643346,0, -5, -4, -3, 1, 0, 1, 0
1491432643361,-4, -6, -3, 0, 1, -1, -2, -2
1491432643368,-1, 6, -4, -1, -2, -3, -4, -1
1491432643376,-2, -6, -4, -1, -2, -1, -1, -17
1491432643383,-2, -2, -5, 2, -2, 2, 1, 2
1491432643399,-2, 3, -1, 0, -1, 0, 3, 5
1491432643406,-2, -6, -1, -1, 0, -5, -3, -5
1491432643421,1, 5, 5, -1, -3, 0, -2, 0
1491432643428,-3, -4, 1, -1, -4, 0, -2, -4
1491432643437,-3, -12, 0, -3, -1, 0, 0, 3
1491432643443,-1, -7, -3, 0, 1, 0, 2, -1
1491432643460,-1, -6, -5, -1, 2, -1, -1, -2
1491432643466,-1, 6, 5, -3, 1, 1, 2, -1
1491432643482,-2, -3, -4, -2, -4, -2, -2, 1
1491432643488,-1, -7, 2, -1, 0, 0, -2, -6
1491432643503,3, 6, 2, 2, -3, -1, 5, 1
1491432643504,0, -2, -4, -3, -2, 2, 1, 4
1491432643519,1, -1, 1, 0, -1, 1, 0, 1
1491432643520,-2, -8, -1, 1, 0, -1, -1, 1
1491432643526,1, -10, -8, -1, -2, -6, -7, 2
1491432643541,3, 11, 3, 3, -2, -2, 1, -3
1491432643549,0, 5, 2, 3, 2, 1, -3, 2
1491432643557,-3, -3, -1, -2, 0, 1, 2, 3
1491432643563,2, 9, 3, 0, 2, 0, -2, 0
1491432643564,0, -3, -1, 0, 1, -1, -6, -1
1491432643579,0, -1, -1, -2, -1, 1, -6, -5
1491432643586,2, -3, -6, -6, -4, -1, 2, 1
1491432643601,-4, 0, -2, 0, 1, -2, 1, 6
1491432643608,-3, -15, -10, -2, -2, -3, -3, -6
1491432643609,-1, 6, 1, 1, 0, -2, 4, 8
1491432643616,-1, -5, -4, -3, 2, 0, 4, -3
1491432643623,-2, 1, 2, 1, 0, -1, -3, -7
1491432643639,-1, 2, 3, 0, -1, 1, -5, -26
1491432643647,-2, -5, -3, -2, 0, 1, 4, -5
1491432643663,-2, 0, 1, -1, -2, 0, -2, 1
1491432643668,-4, -4, -4, -4, -6, -2, -4, -7
1491432643677,0, -2, -3, 2, 4, -2, -1, 11
1491432643684,1, -1, 0, 0, -2, -1, -3, 5
1491432643699,4, 9, 4, 1, -2, -2, -5, -3
1491432643706,-1, -5, -5, -4, -3, -3, -3, 10
1491432643721,1, 2, -1, -2, -3, -1, -5, -14
1491432643729,-4, -2, -3, 0, 1, 4, 1, -12
1491432643736,5, 22, 4, 1, -1, -2, -9, -14
1491432643737,-6, -13, -8, -1, 2, -2, 2, 13
1491432643751,-4, 0, 0, -3, -4, 0, 9, 2
1491432643759,-3, -2, 1, 1, -3, -1, 0, -2
1491432643767,1, -6, -1, 1, 0, -5, -3, 3
1491432643782,3, 9, 9, 0, 0, -2, -5, 0
1491432643789,-1, -4, -5, -3, 2, 0, -4, -10
1491432643796,-2, -4, -2, 0, 0, -1, 4, -1
1491432643811,-1, 6, 4, 4, 1, 0, -3, -4
1491432643819,-1, -4, -3, -2, -1, 1, 9, 1
1491432643826,-5, 15, 7, 2, 1, -3, 3, -4
1491432643851,2, -5, 2, 1, -3, -1, 1, 4
1491432643856,0, -2, -7, 1, -2, -3, -2, -1
1491432643871,1, -3, -4, -3, 1, -1, -8, -1
1491432643880,-2, -1, -2, -3, -1, -1, -4, -5
1491432643886,-2, -1, -2, -1, 1, 0, -2, 2
1491432643902,2, 0, -3, -5, -1, -3, -2, 3
1491432643908,-3, -8, -1, -1, -2, 2, 8, 5
1491432643916,-4, -9, -6, -2, -5, -1, 2, -3
1491432643931,1, 0, 1, 3, 1, 1, -1, -1
1491432643939,-7, -6, -5, 0, -1, 0, -2, 5
1491432643946,4, 21, 6, 0, 0, -4, -10, 1
1491432643969,7, 23, 5, 0, 0, 1, 0, 3
1491432643970,5, -7, -6, -4, -5, -2, -1, 3
1491432643977,-2, -11, 0, 3, 0, 2, -2, 10
1491432643991,0, 6, -3, -2, -2, 1, 5, -5
1491432643999,4, 10, 4, -2, -2, -1, 4, 2
1491432644006,-3, -6, -1, 0, -2, -4, -1, -7
1491432644022,-4, -7, -3, -1, -3, -1, 0, -5
1491432644023,-1, 8, 0, 1, -1, 0, 5, -1
1491432644028,-6, -10, -3, -2, 0, 0, -7, -10
1491432644036,-1, 3, 6, 4, 1, -2, -3, -12
1491432644051,1, 11, 1, -2, -1, -1, -3, -8
1491432644059,-1, -1, 5, 5, -2, -2, -4, 1
1491432644066,-1, -5, 3, 2, 0, -1, -3, 0
1491432644081,-1, -15, -7, -6, -1, 3, 3, 16
1491432644088,0, 7, 3, -3, -2, 3, 5, -18
1491432644089,-3, 3, 2, 3, 1, 0, -2, -10
1491432644096,-4, -7, -1, 1, -1, -3, -4, -7
1491432644111,-3, -14, -8, -9, -5, -3, 3, 4
1491432644119,0, 1, -7, -4, -5, 1, -1, -9
1491432644126,-2, 0, -5, -4, 1, 0, 4, 9
1491432644141,-3, -11, -6, -4, 1, -2, 0, -9
1491432644149,4, 0, 5, 2, 0, -2, -3, 9
1491432644156,4, 1, -5, -3, -2, -4, 2, 9
1491432644171,0, 0, 4, 0, 0, -1, -2, 2
1491432644179,-1, 2, 2, -2, 1, 1, -4, 10
1491432644187,-3, -4, -3, -3, 2, -1, -5, -23
1491432644201,-2, -12, -8, -8, -3, -1, 1, -3
1491432644208,-1, 2, 1, 4, -4, -1, 0, -6
1491432644216,2, 9, 7, 4, 2, 1, -5, -7
1491432644231,-2, -4, -2, -1, -2, -3, -6, -13
1491432644239,1, 0, -3, -4, -2, -4, 2, 13
1491432644246,-1, -13, -10, -6, -2, 2, 3, 8
1491432644262,-5, -7, -6, 0, -4, -1, -2, -9
1491432644268,1, 1, -2, 1, 0, 1, 1, 1
1491432644269,-3, -7, -6, -6, 0, 2, 5, 9
1491432644276,1, 10, 7, 5, 1, 0, 1, -5
1491432644291,-1, -4, 1, 0, 0, 0, -3, -5
1491432644299,4, 12, 9, 3, -2, -1, -5, 11
1491432644306,11, 39, 5, 0, -2, -1, 1, -10
1491432644321,-2, -9, -4, -1, -2, -1, -1, 0
1491432644328,-7, -6, -1, 2, 0, -2, 4, 10
1491432644336,-2, -4, -11, -7, -3, 0, 0, -12
1491432644351,-21, 8, 10, 11, 7, -1, -6, -2
1491432644359,-2, -5, 1, 0, 3, -2, -3, -6
1491432644366,0, -9, -3, -6, -2, 0, 4, 9
1491432644381,5, 9, 7, 2, 1, 0, -1, 3
1491432644382,-1, -3, -4, -2, -1, 3, -1, -6
1491432644388,-9, -1, -2, -2, -5, 0, 0, -10
1491432644389,5, -9, -5, -1, -3, 1, 7, 1
1491432644397,-1, -10, -2, -2, 1, -2, 2, -3
1491432644411,2, 3, 7, 4, 2, -5, -5, -7
1491432644419,-2, 4, 2, 0, 1, -3, 1, 10
1491432644426,13, 4, 6, 3, 0, -3, -1, 59
1491432644441,0, -2, -1, -3, -2, -1, 0, -6
1491432644442,-2, 0, -2, -3, -3, 2, 10, -3
1491432644448,-3, -5, -1, 1, -6, 1, -2, -23
1491432644456,1, 6, 4, 0, 3, 2, -3, 13
1491432644474,-5, -11, -10, -3, -2, -3, -1, -10
1491432644479,1, 2, 0, 1, -1, 0, -4, -6
1491432644480,-10, -11, -5, -4, -4, -4, -3, -21
1491432644486,-4, -12, -8, -1, -1, 3, -7, -10
1491432644501,6, 15, -2, -2, -4, 1, -3, 9
1491432644509,-4, -3, -5, -2, 0, -4, -3, -14
1491432644516,4, -8, -6, -5, 0, -1, -1, 3
1491432644531,2, 5, -1, 1, -3, 0, 1, -9
1491432644545,4, 7, 2, 3, -1, -3, -3, -2
1491432644546,0, -1, 1, -2, -1, 3, 12, 7
1491432644561,-2, 0, 5, 4, 3, -1, 0, -1
1491432644570,-1, -4, -1, -2, -3, 0, -8, -11
1491432644578,-5, -10, -3, 0, -8, -3, -8, -10
1491432644591,0, -7, -1, -4, 0, -2, 8, 10
1491432644599,4, 9, 0, 0, -1, 0, 1, 7
1491432644607,-1, 0, -3, -1, -2, 1, 0, -2
1491432644608,-2, -9, 0, 0, -2, -1, 4, -2
1491432644624,-6, -1, 1, 0, 3, 1, 0, -2
1491432644628,-3, -11, -5, -3, 1, -1, 0, -3
1491432644629,6, 6, -1, 3, 5, -4, -1, 6
1491432644636,-1, -7, -1, -2, 0, -4, -1, 12
1491432644651,-3, -10, -2, 2, 1, -3, -2, -2
1491432644659,-1, -5, -3, -1, -3, 2, -5, -3
1491432644673,-1, 0, -4, -6, 0, 3, 0, 10
1491432644682,1, 4, 8, 4, 0, -5, 1, -6
1491432644688,-3, 4, -1, -1, -1, -3, -3, -4
1491432644703,-5, -11, -6, -4, 0, 3, 3, -3
1491432644711,1, 6, -1, 0, 1, 2, 0, 3
1491432644719,-1, 5, -2, 3, -4, -1, 6, -3
1491432644734,2, 1, -3, -3, 2, -1, -5, 9
1491432644742,-2, -1, -3, -3, -1, 1, -2, 3
1491432644748,-3, -7, -2, 0, -4, -3, 2, -5
1491432644763,-4, -4, 0, 0, 1, -3, -2, -8
1491432644771,2, 3, 5, 0, -2, 1, -1, -9
1491432644786,-3, -9, -3, -2, 0, 1, 1, -5
1491432644793,0, 3, -2, -4, -4, 0, -6, 2
1491432644808,-4, -1, 3, 2, -3, -2, 2, -2
1491432644809,2, -1, 3, -1, -1, -2, -6, -3
1491432644811,-2, -3, -3, 0, -3, -2, -3, -3
1491432644824,-1, -2, -1, -1, 1, 2, -4, 1
1491432644831,-2, -6, -4, -1, -4, 1, 0, 0
1491432644841,-1, -4, -7, 0, -1, -3, 2, 0
1491432644853,1, -2, 1, -1, -3, -2, 2, 3
1491432644854,2, 6, 6, 1, 2, -4, -4, -5
1491432644862,-1, -4, -1, -2, 4, 1, 3, 0
1491432644868,1, 6, -3, -2, 0, -1, -4, 0
1491432644869,-3, -8, -4, 0, 0, -2, 1, 0
1491432644883,1, 5, 5, 2, -1, -2, 0, -2
1491432644892,-1, 2, -1, 0, -3, 2, -1, 1
1491432644901,1, 3, 3, 4, 0, -2, -1, -2
1491432644913,-1, -6, -2, -1, 0, 0, -1, -1
1491432644921,-3, -3, -1, 0, 1, 1, -3, 1
1491432644928,3, 2, -1, 0, -3, -2, 1, 3
1491432644929,-2, -2, 4, 0, -2, -1, 1, -2
1491432644944,0, 1, 1, -4, -5, -1, -2, 0
1491432644951,-1, 7, 1, 0, 0, 0, 4, 0
1491432644959,3, 5, 0, 8, 1, 0, -5, -5
1491432644974,-3, 9, 0, -2, -1, 1, -1, -2
1491432644981,-2, -6, -3, -6, -4, -2, 1, 1
1491432644989,0, -10, -4, -1, 1, -1, -4, 1
1491432645003,-1, -5, -5, -4, -1, 2, -1, 0
1491432645011,2, -10, -1, -28, -7, -2, -3, 0
1491432645019,-3, 3, 3, 3, -2, -4, 0, -3
1491432645033,8, -6, -7, -3, 1, -4, 0, 1
1491432645034,6, 18, 2, 2, 1, -2, -4, -5
1491432645041,-21, -7, -2, -14, -4, -6, -1, 0
1491432645042,2, -8, 0, 0, -1, 0, -3, -1
1491432645048,1, -5, -2, 5, 1, 3, 0, -1
1491432645063,0, -5, -1, 19, 3, 2, 0, 1
1491432645071,-3, -7, 1, 5, 1, -3, 0, -4
1491432645079,1, -8, 1, -1, 0, -3, 0, 0
1491432645093,-8, 1, -2, 3, 0, -1, -1, -1
1491432645101,-3, 7, 1, -10, -1, -3, -4, -3
1491432645109,-6, -4, -1, 1, 2, -3, -2, -6
1491432645123,3, -1, -5, -4, -1, 1, 1, 1
1491432645131,0, 24, 0, 1, 1, -2, 2, 1
1491432645139,-2, -7, -4, 0, -1, -3, -2, 0
1491432645153,-4, 2, 3, -1, 0, 1, -2, -5
1491432645154,0, -9, -2, -4, -4, 1, 0, 4
1491432645168,2, 9, 1, -4, -4, 2, 0, -2
1491432645169,1, -15, -6, 0, -3, 1, 0, 1
1491432645183,1, 11, 8, 3, 2, -1, 0, 2
1491432645184,1, -13, -7, -3, 0, -1, -1, -3
1491432645191,-3, 8, 2, 1, 3, 1, -1, -4
1491432645201,-4, -7, -1, -3, -3, -2, -1, 0
1491432645213,-3, 4, -2, 2, -1, 0, -1, -3
1491432645214,3, -6, -4, 2, 0, -3, -3, -1
1491432645221,-2, 11, -2, -4, -2, 0, -1, 1
1491432645228,7, 14, -3, -2, -2, 0, 1, 1
1491432645243,-3, -10, -1, -1, 1, -1, -1, -2
1491432645251,-1, -5, 0, 0, 0, -1, 0, 2
1491432645259,0, 5, -1, -1, -4, -1, 1, 1
1491432645273,-3, -4, 4, 1, -1, 2, -7, -1
1491432645282,-2, -7, -1, -1, 0, -2, 1, -2
1491432645288,1, -6, 1, -1, -2, -2, -1, 0
1491432645303,-1, -4, -1, -2, -2, 2, -2, -2
1491432645311,-4, 4, 1, 1, -3, -1, 2, -1
1491432645320,1, 1, 1, -2, 1, -4, 2, 2
1491432645333,2, -8, -2, 2, 1, -4, 1, -1
1491432645341,2, 8, 1, -1, 2, -4, -1, -2
1491432645348,-3, -9, -1, -2, 0, -4, 1, 0
1491432645349,-1, -5, -1, 0, 0, 2, -1, 0
1491432645363,0, -2, -4, -1, -2, 0, -3, 0
1491432645371,0, -4, -4, -2, -5, -1, 0, -2
1491432645379,0, -2, -2, -1, 2, 0, -2, -3
1491432645393,0, -2, 0, 0, 1, 2, 1, -1
1491432645394,-3, -4, -5, -3, 2, -1, -2, 0
1491432645401,-7, -6, -8, -3, -3, 2, -1, -2
1491432645408,2, 6, -1, -1, -1, 1, -5, -2
1491432645409,-1, -1, -1, 2, -1, -2, -2, -1
1491432645423,-1, -1, 1, -2, -4, -1, -2, 1
1491432645431,-5, -8, -6, -3, -4, -5, -1, -3
1491432645439,0, -5, -2, -1, 0, -1, 0, 0
1491432645453,4, 3, 0, 1, 2, 0, 1, -1
1491432645461,-2, -5, 0, -5, 0, 1, -3, -2
1491432645468,0, -10, 1, 0, 0, 1, -1, -1
1491432645483,-2, 0, -2, 1, -2, -4, -1, 0
1491432645491,-2, -1, -1, -3, 0, -4, 0, -1
1491432645499,0, 2, -1, 1, -2, -2, 1, -1
1491432645513,3, 3, 3, 0, -1, 1, 0, 1
1491432645522,1, 3, 2, 0, 0, 1, 1, 2
1491432645530,0, 2, 6, 2, 1, 1, 0, 0
1491432645543,0, -2, -2, 3, 0, 0, 1, -1
1491432645551,-1, -3, -3, -4, -1, -1, -1, -1
1491432645559,1, 1, -3, -1, 0, -1, -3, 1
1491432645573,-1, -3, -3, -1, -3, -5, -1, -1
1491432645581,-2, -3, -3, -2, -1, -2, 2, 0
1491432645588,-6, -7, -2, 0, 0, 0, -3, -1
1491432645604,1, -5, -2, -1, 1, -1, 0, -3
1491432645611,-4, -8, -8, -3, -4, -3, -1, 1
1491432645626,-1, 1, 0, 0, -3, 2, -1, -1
1491432645633,0, -2, 0, -3, -1, 2, -1, -3
1491432645641,1, 1, 1, -1, 1, -2, -2, -4
1491432645656,0, -1, -2, 0, -2, -3, -2, -1
1491432645663,10, -2, -1, 1, 0, -2, -1, 0
1491432645671,4, 3, -1, -4, 0, 3, 1, 2
1491432645686,-3, -5, 5, 0, 2, 4, 1, 0
1491432645693,0, 4, 0, -2, 3, 0, -5, 0
1491432645702,-10, 1, 2, -1, -2, -1, -5, -5
1491432645715,5, -1, -3, 0, -3, -2, -2, -1
1491432645723,-2, 2, -3, -10, -6, -3, 2, 2
1491432645731,-4, -1, -1, 2, -1, 0, 1, -1
1491432645746,4, 2, -2, -2, 1, -3, -2, 3
1491432645753,5, -2, -3, -19, -5, 1, -3, -5
1491432645761,-14, -2, -3, -5, -1, 1, 1, -3
1491432645775,-3, 1, 2, 2, 3, -2, 0, 0
1491432645783,-8, -2, -1, -9, -2, -2, 1, -3
1491432645784,23, 4, -1, 1, -1, -5, -5, 15
1491432645791,-6, -1, -3, -10, -8, 0, 4, -2
1491432645806,30, 1, -2, 0, -3, -1, 2, 6
1491432645814,9, 2, 4, 26, 7, -2, -6, 5
1491432645821,-8, 1, 5, 5, 2, 0, -3, -3
1491432645835,3, 2, 1, -14, -2, 0, -2, -1
1491432645847,6, -4, -3, -6, -2, 2, -10, -9
1491432645851,-17, -3, 1, 17, 4, 4, 3, -1
1491432645866,-23, -4, -5, -13, -6, 0, -2, -8
1491432645873,3, -3, -3, 11, -1, -3, 1, 2
1491432645881,-15, -2, -3, -17, -2, -4, 5, -3
1491432645895,-3, -3, 0, -6, -2, -1, 0, -4
1491432645903,-14, -2, 1, -3, 0, 0, 0, -1
1491432645911,-7, -2, -1, -14, -2, -1, 0, -1
1491432645926,-55, -4, -4, 0, -1, -1, -2, -11
1491432645933,1, -4, -4, -3, -3, 0, -3, -1
1491432645942,10, -1, 1, 18, 5, 2, -1, -3
1491432645955,-26, -1, 1, -1, 2, -3, 0, -2
1491432645963,6, 1, 1, 2, 0, -2, -5, 0
1491432645971,4, 1, 0, 11, 2, -1, -4, 0
1491432645986,-1, -4, -3, -1, -5, 2, 3, 3
1491432645993,16, 11, 4, -6, -4, -3, 2, 6
1491432646005,4, 1, -3, 3, -1, -1, 2, 5
1491432646015,-5, -5, -1, 1, -2, 3, 3, -2
1491432646024,18, -3, 1, -1, 1, -1, -2, 1
1491432646032,-7, -5, -5, 0, -2, 2, -1, -2
1491432646046,5, -4, -1, -2, -1, -6, -1, -2
1491432646053,0, -1, -3, 0, 4, -3, -2, -2
1491432646069,3, 2, 0, 4, 4, 1, 0, 2
1491432646075,7, -2, -3, -5, -3, -2, -1, 1
1491432646083,8, 0, 1, 2, -3, 1, 0, -3
1491432646098,-23, -4, -3, -2, -1, 0, 1, -1
1491432646113,2, 0, 1, 1, -2, -2, 2, 3
1491432646114,20, -1, 0, -2, -2, 0, -1, 0
1491432646122,-15, -3, -5, -2, -3, -2, -3, -1
1491432646135,1, -2, 0, 0, 0, -1, -1, -4
1491432646150,10, 1, 1, -1, 1, 0, 0, -1
1491432646151,3, -2, -1, -3, -5, -4, -3, -4
1491432646166,-10, -2, -1, 2, -3, -3, -3, -4
1491432646173,-33, -5, -1, 0, 1, -1, -2, -8
1491432646181,-7, -7, 0, -1, 2, -1, -1, -5
1491432646195,26, 1, -5, 0, 5, 3, -1, 1
1491432646203,8, 3, 0, -1, 1, 11, 2, 2
1491432646211,1, 0, -1, 0, -1, 1, 1, 3
1491432646226,19, 1, -4, 1, -1, -3, 0, 0
1491432646234,18, 6, 3, -1, 1, -1, -1, 0
1491432646241,-26, -4, -2, -3, -3, -5, -1, -10
1491432646255,12, -2, -2, -2, -4, -8, -3, 2
1491432646263,9, 2, 0, 2, 1, 0, -1, 1
1491432646271,10, 1, 0, -1, -2, 2, -1, -2
1491432646286,32, 1, -1, -2, -2, -2, -4, -5
1491432646293,-16, -2, -1, 1, -4, -2, 0, -1
1491432646301,-10, -4, -2, -1, -1, -3, 1, -1
1491432646315,-4, -4, -1, -4, -3, -1, 0, 0
1491432646323,-8, 0, -1, 5, -14, -3, 0, 5
1491432646331,15, 3, -4, -5, -1, 2, 0, 2
1491432646346,23, -2, -1, -6, 3, 2, 1, 5
1491432646353,-4, -1, 0, 4, -1, -1, 2, 2
1491432646361,3, 3, 2, 1, 1, 1, 0, 2
1491432646375,-16, -4, 3, -1, 1, 2, -1, -3
1491432646383,-25, -4, -5, -4, -2, -2, 0, -4
1491432646391,-12, -2, 0, -2, -2, -5, 0, -6
1491432646406,-36, -4, -1, -2, 0, -1, 0, -4
1491432646420,-2, -1, -3, 1, 1, -2, -1, 2
1491432646422,8, -1, -2, -5, 0, -2, -6, -6
1491432646435,-4, -5, -3, -2, -2, 5, 0, 0
1491432646444,18, 1, 1, 1, 4, 2, -1, 4
1491432646452,44, 5, 0, 0, 1, -1, -2, 4
1491432646466,-1, -1, 1, 11, 2, -3, 1, -1
1491432646473,-15, -4, 2, 0, 1, -1, -2, -2
1491432646481,-2, -2, -2, -13, -1, -2, -2, -5
1491432646495,-4, -4, -5, 7, 0, -1, 0, -2
1491432646503,-7, -2, 2, 0, -1, -3, -1, 0
1491432646511,42, 3, -4, -6, -5, -4, -2, 3
1491432646526,1, -2, -4, 3, 0, 0, 0, -1
1491432646533,-12, 0, 0, 0, 0, 0, -1, -5
1491432646548,-10, -5, 0, -3, -2, 0, -2, -6
1491432646555,-4, 6, -1, 0, 0, -1, -1, -1
1491432646563,-1, -5, -1, -3, 1, -2, 0, -2
1491432646579,-2, -11, -1, -1, 0, -1, -2, 1
1491432646586,8, -3, -2, 0, -3, -4, -2, 3
1491432646593,-14, -3, -2, 3, 1, 0, 0, 0
1491432646608,-7, -8, -1, -3, -4, 1, -2, -3
1491432646615,13, 5, -2, -6, -4, -3, 0, 6
1491432646623,-1, 1, -5, -1, 6, -1, 0, -4
1491432646638,-26, -8, 0, 15, 3, -2, -3, -10
1491432646646,10, 19, 17, -3, -1, 2, 2, 6
1491432646653,-3, -1, -2, 6, 2, 2, 1, 0
1491432646668,-25, 29, 5, 0, 2, 3, 2, -2
1491432646675,-25, 4, 6, -6, -2, 1, 1, -2
1491432646683,4, -13, -1, 5, 1, -1, 0, 4
1491432646698,-3, -7, -2, 43, 7, 0, 1, 2
1491432646706,4, -7, -7, 0, -7, -2, -2, -4
1491432646713,19, -2, -3, 24, -10, -1, -4, -5
1491432646735,5, -4, -4, 15, 6, -1, 0, 2
1491432646737,-2, -1, 0, -27, -2, -5, -3, -2
1491432646743,10, -6, -5, -15, -11, -5, -3, 0
1491432646758,-6, -5, -3, -5, 0, -2, 0, -2
1491432646766,-7, -8, -5, -10, -1, -1, 1, 0
1491432646773,6, 4, 2, -5, 3, 0, 0, -1
1491432646789,-3, -5, -7, -6, -6, -2, -2, -2
1491432646795,12, 3, -6, -23, -7, -3, -1, -4
1491432646803,6, -8, -3, -1, 6, 3, 2, 1
1491432646818,-17, -6, -5, -17, -2, 2, 2, -2
1491432646826,-31, -10, -2, -3, -3, -3, -6, -4
1491432646833,61, 6, -2, 8, 4, 0, -1, 6
1491432646834,-16, -5, -2, -1, 1, -2, 1, 4
1491432646848,2, -1, -2, 5, 2, -1, 1, 2
1491432646856,36, 8, 3, 1, -1, -3, -4, 2
1491432646865,-14, -14, -6, -5, -4, 1, -1, -1
1491432646866,6, 2, 1, -1, 3, 2, 2, -4
1491432646878,-4, -5, -3, -11, -3, -1, 1, 0
1491432646885,-6, 3, 0, 1, 3, 1, -1, -2
1491432646886,4, -3, -3, -12, -4, 0, 0, -1
1491432646893,2, -2, 3, 10, -2, -2, -1, 1
1491432646908,1, 4, 3, 10, 1, -1, 0, 1
1491432646916,-9, 9, 1, -4, -5, -1, 0, 0
1491432646924,18, 4, -1, 1, 0, 0, 0, 2
1491432646938,26, 2, -1, 1, 0, 0, -3, 2
1491432646947,-3, -3, -1, 19, -1, -3, -2, -4
1491432646953,-12, -1, -4, -7, 2, 2, -2, -5
1491432646968,-2, -1, 1, -11, -2, 1, -4, 1
1491432646976,-8, -10, -5, -4, -3, -1, 1, -2
1491432646984,-34, -6, -4, -8, 0, 1, 3, -1
1491432646998,-29, -9, 0, 4, -1, -1, 3, 0
1491432647006,-14, -5, -6, -2, -3, -2, -8, -4
1491432647013,12, -3, -1, -7, -1, -2, -3, 2
1491432647028,11, -4, 0, 1, -2, -5, 0, 1
1491432647036,-20, -3, -1, -3, 1, 0, -2, -8
1491432647044,17, -1, 0, -14, -3, 1, 2, 1
1491432647058,-11, -1, -1, 3, -1, 1, 1, -1
1491432647066,3, -2, -3, 3, -9, 0, -2, -6
1491432647073,1, -2, -2, -12, -5, -3, -10, -1
1491432647088,-15, 2, -2, -6, 1, -4, -4, -5
1491432647096,-8, -4, -2, 3, 7, 4, 7, -1
1491432647104,-4, -3, 4, 6, 3, -5, -7, 4
1491432647118,2, -9, -6, 0, 1, -2, -4, -3
1491432647126,3, -1, -2, -1, 3, 3, 1, 1
1491432647133,19, 19, 5, 12, 3, 0, -5, -11
1491432647148,9, 0, -3, 4, 4, 0, 0, -2
1491432647157,1, -9, -5, -10, -8, -1, 0, 6
1491432647158,-1, -7, -1, -5, -1, -4, -2, 11
1491432647163,19, 12, 4, 5, 2, 3, 3, 12
1491432647178,2, -5, -4, -5, -3, 1, -6, 0
1491432647186,11, -3, -2, -4, -7, -1, -8, -5
1491432647193,-4, -6, -2, -4, -7, -1, -1, -11
1491432647209,-19, -4, -4, 2, 4, 2, -1, -1
1491432647216,1, -2, 2, 1, 3, -2, 1, 12
1491432647224,-1, 3, 0, 3, 3, -1, 4, 4
1491432647225,8, 0, -1, -3, 0, -2, 1, -5
1491432647238,-3, -8, -2, 2, 3, 1, -2, 3
1491432647241,21, 14, 5, 2, -2, 0, 12, 3
1491432647246,4, 0, 1, 0, -1, -5, -7, 7
1491432647253,-6, -2, -4, -17, -1, -1, -3, 2
1491432647254,4, 2, 1, 21, 4, -1, 8, 12
1491432647268,-24, -6, -1, 0, -4, -2, -5, -9
1491432647276,-16, -1, -1, -6, -4, 0, 4, -14
1491432647284,-2, 1, -1, 2, 2, 1, 13, -1
1491432647298,9, 6, 6, -6, 1, 1, -10, -7
1491432647306,7, 0, 1, 0, 1, 2, 0, 1
1491432647313,-15, 6, -1, -1, 1, 1, -10, -10
1491432647328,-2, -2, -4, -2, -7, -7, -3, 4
1491432647343,-3, -9, -8, -6, -1, -2, 4, -13
1491432647344,-5, -1, -7, 0, 4, 1, 6, 3
1491432647358,-10, -8, -9, -5, -4, -3, -5, 3
1491432647366,-1, -10, -1, 1, 2, 1, 1, -12
1491432647373,4, 1, 3, -1, 0, 2, -11, 8
1491432647388,-2, -6, -4, -5, -3, 1, -2, 13
1491432647396,-13, -13, -5, -1, -6, -3, -4, -16
1491432647405,-13, -4, -1, -3, 1, -4, -11, -28
1491432647418,-7, -5, -1, -1, 3, -3, 1, 8
1491432647426,16, 5, 1, 3, 3, 2, 5, 12
1491432647433,49, -1, -3, -5, -4, -1, 0, -1
1491432647448,-13, -9, -3, -4, -5, 0, 3, -3
1491432647456,-26, -12, -3, -2, -4, 0, -3, -7
1491432647471,12, -7, -3, 1, -2, -1, 0, 0
1491432647477,-3, 3, 0, -1, 0, 1, 3, -4
1491432647485,-6, 4, 3, -2, -1, 2, -3, -1
1491432647486,8, 1, -1, 0, -3, 1, 1, 1
1491432647502,-5, 10, 0, -1, 0, -1, 3, 7
1491432647508,-1, 3, 9, 4, 1, -2, -2, -3
1491432647516,13, -5, 1, 1, -2, -5, 1, 7
1491432647531,9, 22, 14, 0, -1, -3, 0, -2
1491432647538,0, 1, 1, -1, 1, 3, 2, 6
1491432647546,20, -5, -7, -2, -1, -3, -3, -6
1491432647560,-6, -2, -5, -2, -2, 0, -2, -1
1491432647568,-26, -2, -6, -16, -9, -3, 0, 2
1491432647576,-7, -1, -2, -8, 2, 0, 2, 0
1491432647591,3, -1, -3, -5, 0, -4, -2, 2
1491432647597,-29, -4, -4, -25, -7, -2, -2, -3
1491432647598,16, 0, 5, 23, 1, 3, 0, 0
1491432647607,-3, -2, -2, 35, 4, 2, 2, 1
1491432647620,-9, -2, 1, 33, 9, 1, 1, 3
1491432647628,-3, 0, -1, -7, 3, -2, 1, -1
1491432647636,-27, -6, -5, -10, -4, -3, -2, -5
1491432647651,-21, -8, -4, -12, -6, -1, -1, -3
1491432647659,14, -2, 1, -15, -2, 0, -1, 3
1491432647666,2, 1, 1, 0, -1, 1, 1, 2
1491432647680,-30, 2, -1, -5, -7, -3, -4, -6
1491432647688,-3, -5, 1, 13, 1, 3, 0, -2
1491432647696,2, -2, -2, -14, -1, 1, 4, 3
1491432647712,19, 1, -3, -13, -3, -4, -3, -5
1491432647718,5, 9, 11, 4, 1, -1, 1, 0
1491432647725,1, -9, -3, -5, -1, -3, -1, -2
1491432647726,-13, -2, -1, 1, -1, -2, 0, 0
1491432647740,-16, -3, -7, -2, -3, 0, -1, -1
1491432647748,-16, -3, 4, -2, -5, -2, -1, -4
1491432647756,29, -7, -8, -7, -6, -6, -6, -7
1491432647771,9, -3, -2, 9, 1, 1, 2, 4
1491432647777,4, -1, -1, 18, 7, 1, 10, 4
1491432647786,-19, -10, -3, 6, 2, 1, 0, -11
1491432647800,-19, -4, 0, -21, -5, -3, -4, -2
1491432647808,0, -2, 1, -12, 0, -2, 0, 15
1491432647816,17, 0, -3, -2, -1, -2, -4, -21
1491432647831,13, 5, -1, -2, 4, 3, 0, -20
1491432647840,1, -1, 2, 0, 3, 0, -3, 2
1491432647846,21, 16, 3, 3, 0, 2, 7, 49
1491432647860,-11, -9, -8, -7, -12, -4, -2, -5
1491432647868,0, -8, -5, 0, -3, -5, 1, -23
1491432647883,7, -1, 0, 2, 5, 3, -2, 36
1491432647890,-4, -2, -3, -2, -4, -3, 9, -6
1491432647891,14, -5, 1, -7, -5, -1, -7, 3
1491432647897,-1, -7, -9, -3, 0, -4, 0, -31
1491432647905,-6, -17, -9, -9, -6, -4, -7, -5
1491432647920,-1, -4, 1, 2, 2, 4, 3, -11
1491432647928,-10, -6, -1, 5, 5, 2, -17, -25
1491432647935,0, 6, 0, -3, 1, -4, -3, 12
1491432647950,-28, -9, -6, -3, 0, -3, -2, -8
1491432647951,24, 9, 5, 3, 6, 3, 6, 7
1491432647957,-5, -10, -4, -1, -2, -3, -2, -18
1491432647958,-6, -3, -4, -6, -6, 0, 2, 3
1491432647966,-7, -11, -7, -2, -6, -2, -3, 0
1491432647967,4, 3, -1, -4, -7, -4, 1, 1
1491432647980,9, -7, -7, 2, 1, -2, -9, 1
1491432647988,27, 4, -2, -2, 5, 0, 3, -15
1491432647996,2, 38, 15, 2, -2, 0, 1, -1
1491432648011,-98, 0, -2, -10, -22, -15, -21, -7
1491432648017,-5, -12, -4, -2, -3, -4, -1, -6
1491432648026,13, 2, -1, 3, 8, 5, 7, 9
1491432648040,-10, 2, -2, -4, 0, -1, -3, 5
1491432648048,5, -5, 2, 2, 5, 3, 1, 6
1491432648056,25, -3, 0, 3, 4, -2, 5, 7
1491432648071,14, 2, 5, 0, -4, -1, 4, 3
1491432648077,4, 3, -2, 3, 1, 4, 5, 1
1491432648078,-10, 11, 2, -3, -6, -1, -3, -5
1491432648085,-7, -9, -3, -3, -4, -1, -3, -4
1491432648086,-1, -4, -3, -2, -2, 2, -4, 4
1491432648100,11, -5, 0, 3, 1, 2, -1, 3
1491432648108,-21, 7, 3, -1, 2, 0, 2, -1
1491432648116,-17, -15, -3, -2, 0, -1, -1, -3
1491432648132,-12, -17, -14, -2, 1, 0, 2, 2
1491432648138,-72, -9, -5, -2, 0, 0, -3, -6
1491432648146,5, -4, -4, -2, -2, -2, -3, -6
1491432648160,54, -3, -3, -1, -3, 1, 2, 4
1491432648168,-39, 0, 0, -1, -2, 0, -1, -3
1491432648176,-5, -3, 1, -3, 1, 2, -1, -15
1491432648191,21, 0, 1, 0, 0, 2, 1, 9
1491432648197,-24, -5, 2, -1, 3, 1, 3, 0
1491432648198,6, -7, -6, -6, -5, -5, -2, 8
1491432648206,10, 1, -3, 0, -1, -1, 1, 0
1491432648220,4, 4, 4, 1, 1, -3, 2, 1
1491432648228,25, 1, 1, 2, 1, -3, 2, 0
1491432648235,-1, -4, -2, -8, -2, -4, -3, -4
1491432648236,-15, -3, -2, -4, -3, -1, 1, 0
1491432648251,-7, -2, -2, -5, -2, -3, -2, 0
1491432648258,12, 5, 1, -5, -3, 2, 1, -1
1491432648266,11, 2, 1, -2, -4, -1, 2, -5
1491432648281,-8, -4, 2, 3, 0, 1, 0, 3
1491432648288,-20, 3, 1, -7, -6, 0, 4, -3
1491432648289,10, 1, 1, 4, 6, 1, -2, -7
1491432648304,0, -7, -7, 7, 6, -3, -1, -8
1491432648311,-4, -1, -3, -1, 1, -2, -4, -21
1491432648319,9, -3, -7, -1, -3, 0, -1, 1
1491432648326,20, 24, 4, -1, -6, -2, 3, 19
1491432648341,-9, -2, 3, 3, 3, 2, -1, -1
1491432648348,-5, -6, -3, 0, 2, 1, 0, -6
1491432648365,-25, -3, -2, -1, -1, -2, 1, 4
1491432648370,-11, -14, -7, -6, -6, -2, -4, 1
1491432648378,-6, 1, 3, 2, 1, 2, 3, 6
1491432648379,4, -8, -4, -8, -4, 0, -2, -1
1491432648386,-19, -4, -1, 0, 0, 0, -2, -8
1491432648401,11, -2, -5, -2, 7, 1, 1, 2
1491432648408,23, 4, 4, 4, 4, -1, 9, 13
1491432648425,-14, -2, 2, -1, -4, -2, -5, 4
1491432648426,-4, -8, -3, -2, -4, -3, -9, -8
1491432648431,33, -8, -5, 1, 0, -2, -5, 1
1491432648439,-2, 37, 14, 6, 2, 1, 2, -8
1491432648453,-6, 5, 7, -4, 2, 1, 9, 3
1491432648461,5, -4, -2, 3, -4, -3, 3, 8
1491432648468,-7, 0, 0, 5, 3, 2, -3, -34
1491432648484,4, -3, -2, -3, -4, -1, 2, -7
1491432648491,-4, -11, -5, -1, -9, -2, -7, 4
1491432648499,-22, -7, -3, -2, 2, 2, 2, 3
1491432648514,16, 5, 3, 1, 4, -1, -5, 3
1491432648521,5, 10, 3, 1, 5, -1, 2, 3
1491432648528,-29, -1, -3, -4, -7, -5, 1, 1
1491432648544,9, -4, 1, 1, 2, -2, -4, -5
1491432648551,33, 1, -3, -3, -7, -6, -18, -27
1491432648558,-32, -8, 5, 0, 5, 0, 9, -2
1491432648559,37, 0, -4, 0, 2, 2, 0, -10
1491432648573,5, 6, -2, -1, 2, 1, 4, 22
1491432648581,-20, -6, 2, -1, -2, -5, -3, -25
1491432648588,-11, 9, 3, 2, 3, 3, 2, -2
1491432648604,-2, -15, -9, -5, -9, 2, 1, 12
1491432648611,-19, -8, -4, -3, -5, -2, -1, 8
1491432648626,-8, -9, -3, 0, -1, -2, -6, 14
1491432648634,6, -16, -1, -2, 3, 1, 5, 0
1491432648648,9, -4, 0, -3, 0, 0, -3, 14
1491432648649,1, 0, 0, 0, 2, 2, 2, -15
1491432648663,9, -10, -8, -2, -1, 2, -2, -4
1491432648664,-4, 6, 4, -1, -3, 0, -3, -1
1491432648671,-1, -4, 5, -1, -2, -2, -4, 4
1491432648680,-7, -4, -4, 3, 2, 0, 4, 6
1491432648693,-1, -9, 0, 0, 1, 1, 3, 7
1491432648703,-2, 10, 5, -3, -6, -7, -5, -6
1491432648710,-22, -5, -3, -3, -1, -2, -3, -1
1491432648724,-4, -13, -6, -7, -12, -8, -8, -11
1491432648731,5, -1, -7, 0, -1, -4, 3, 8
1491432648739,3, -2, 0, 2, 0, 0, 2, 2
1491432648753,1, 4, -2, -1, -2, -2, -6, 11
1491432648761,-4, -1, 1, 0, 1, 2, 3, 2
1491432648768,8, -9, -1, -1, -4, 0, -2, -9
1491432648784,13, 14, 7, 1, 2, 1, -2, -2
1491432648791,-13, -7, -4, -3, -4, 0, -1, -4
1491432648799,-15, -7, -5, -4, -1, 1, -2, 5
1491432648813,-5, 5, 3, 1, 1, -7, -1, 20
1491432648827,-8, -6, -7, -2, -4, -4, 1, 0
1491432648829,-12, 1, 3, 2, 0, 1, 0, 0
1491432648844,13, 2, -1, -1, 5, 2, 0, 0
1491432648851,9, 24, 7, 2, -2, 2, 1, -2
1491432648859,9, 6, 0, -2, 0, -1, 1, -2
1491432648873,-4, 3, 7, 3, 4, 3, 2, -2
1491432648881,-7, 7, 6, 4, 4, 2, -2, -5
1491432648889,-1, -11, -7, -2, 0, -4, 0, -3
1491432648905,-4, -7, 1, -1, 3, -1, 2, -3
1491432648910,-13, 3, 2, -2, 3, -2, -1, -2
1491432648911,26, -3, -7, -4, -2, -2, -1, 7
1491432648919,-23, -12, -9, -3, -3, 1, 0, 3
1491432648933,7, 0, -7, -3, -4, -6, -5, -5
1491432648941,-17, -6, -4, 1, 1, 0, 0, 1
1491432648948,-14, -9, 0, -2, 0, 1, -1, -8
1491432648963,14, 5, 0, 0, -4, 1, -1, 3
1491432648964,-3, -3, -3, -1, -5, -7, -3, 0
1491432648971,5, 1, -2, -2, -1, 1, 0, -1
1491432648979,-23, 2, 2, 1, -3, 2, -2, -4
1491432648993,-22, -2, -2, 19, 11, 2, 2, 1
1491432649002,-6, 1, 3, 0, -2, -2, -1, -2
1491432649008,-9, -6, -3, -14, -11, -4, -1, -4
1491432649025,31, 2, 1, 14, 3, -1, -2, 1
1491432649031,-39, -2, 2, 7, 1, 1, 0, -5
1491432649039,42, 7, 8, -8, 1, -1, 0, -2
1491432649054,-15, -4, -3, -4, 0, 1, 2, 0
1491432649061,-13, -5, -6, -5, -1, 0, -1, -4
1491432649068,17, 5, -1, -8, -6, -2, -1, 4
1491432649083,-9, -4, -1, -16, -8, -2, -4, -15
1491432649084,15, -2, -3, 14, 2, -1, 0, 4
1491432649091,-6, -4, 0, 0, 2, -1, -1, -2
1491432649099,-14, -2, -2, -5, -3, -3, -1, -1
1491432649113,-3, -6, -6, -5, -5, -1, -3, 2
1491432649121,19, 3, -2, 0, -1, 1, 2, -4
1491432649129,5, 0, 4, -3, -2, 0, 1, -4
1491432649144,-11, -5, -2, -1, 2, -2, -5, -11
1491432649151,-16, -11, -4, -4, -11, -7, -6, 4
1491432649159,-13, 28, 8, -4, -2, 0, 0, -13
1491432649173,6, -3, 1, -3, 0, 2, -2, -9
1491432649181,-26, -10, 1, -2, -2, -1, 1, 5
1491432649188,13, 1, -4, 0, 7, 2, 2, -2
1491432649204,10, -7, -6, -6, 4, 2, -2, 2
1491432649212,25, 5, 3, 25, 14, 5, 2, -11
1491432649218,-2, -1, -3, 7, 6, -1, -3, -13
1491432649219,-4, -12, -10, -10, -13, -4, -6, 1
1491432649233,7, 7, 5, -7, 0, 3, 2, 2
1491432649241,26, 7, 6, 2, -1, 0, 4, 10
1491432649248,-13, -9, -2, -1, -1, -3, -3, 16
1491432649264,-27, -15, -8, -6, 2, -2, -2, -2
1491432649271,8, 7, -2, -4, -3, -4, 4, 4
1491432649279,29, -2, -4, 0, 4, -2, -4, 6
1491432649293,-5, -1, 0, 13, 6, 2, 1, 2
1491432649301,2, 13, 7, 16, 6, 4, 1, -11
1491432649309,7, 2, 4, 21, 11, 5, 0, 0
1491432649324,-7, -6, 1, 8, -3, 1, 8, -4
1491432649331,-4, 4, -1, -14, -11, -5, -6, -9
1491432649347,-16, 4, 1, 8, 4, 4, 5, 15
1491432649348,11, -2, -2, -10, -3, 1, -4, -4
1491432649354,-7, -16, -7, -9, -5, -5, 0, 4
1491432649361,12, -10, -5, -7, -3, -4, -1, 17
1491432649376,-11, 3, -5, -8, -11, -3, -8, -7
1491432649383,10, 4, 1, 1, 2, 4, 5, 3
1491432649384,-2, -3, -2, -3, -6, 0, 0, 5
1491432649390,22, -2, -1, -10, -2, -2, -1, 7
1491432649391,-8, -5, -1, 17, 0, -2, -2, -16
1491432649405,-13, -4, -4, -1, -2, -2, -1, 2
1491432649406,-5, -4, -4, -5, -1, -2, -6, -17
1491432649413,0, 8, 5, 5, 5, 3, 2, -6
1491432649422,-17, -5, 0, 3, 5, 0, 4, 3
1491432649436,-18, -3, 1, -7, -8, -5, 0, -10
1491432649444,-10, 7, 4, -3, -1, -4, -4, 2
1491432649451,32, 2, -5, -12, 1, 3, 2, 17
1491432649466,-1, -4, -4, -3, -11, -3, 2, 4
1491432649473,-21, -7, -2, -15, -2, -1, -1, 4
1491432649481,-1, 5, 3, 2, 2, 3, 1, -4
1491432649496,7, 7, -1, -15, -9, -3, -5, -14
1491432649503,-4, -1, 3, 7, 4, 0, 3, 2
1491432649504,-14, -5, -1, -1, 6, 1, 5, 5
1491432649511,4, 1, -1, 3, 3, 0, -4, 1
1491432649526,-18, -2, 5, -1, -5, -8, -6, -5
1491432649533,2, 1, 1, -6, -3, -3, 2, 1
1491432649541,6, -2, -6, -2, -1, 0, 1, 1
1491432649556,-6, 0, 7, 6, -2, 2, 0, 5
1491432649557,-9, -7, -4, -3, -3, -1, -1, 0
1491432649564,-2, -2, -2, -1, -3, -1, -2, -1
1491432649571,-6, 15, 4, 7, 4, 4, -1, -11
1491432649586,-1, -5, -3, -6, -4, -4, -6, -14
1491432649593,1, -9, -1, -10, 0, -4, 0, 12
1491432649601,2, 4, 1, 7, 3, 0, -2, -9
1491432649602,-12, 0, -4, 6, 2, 1, -4, -6
1491432649616,4, -10, -4, -5, -4, -3, -4, 1
1491432649623,-4, -29, -10, 3, 1, -1, -9, -19
1491432649631,31, 35, 6, 6, 0, -1, -2, 8
1491432649632,-2, -16, -9, -5, -1, -1, 4, 2
1491432649646,-9, -14, -5, -3, -2, -2, 5, -7
1491432649660,21, -4, -4, 4, 0, -2, -2, -3
1491432649662,-3, 22, -1, 1, -1, -1, 3, -1
1491432649676,-5, 17, 19, 4, 2, 0, -2, 4
1491432649684,-5, -17, -1, -8, -5, 2, 0, 6
1491432649691,2, -12, -10, 1, -1, -2, -2, -1
1491432649705,6, -10, 0, -3, -2, -3, -1, 0
1491432649706,-2, 36, 7, 2, 5, -1, 0, -3
1491432649713,-31, -5, 4, 0, -2, -2, -3, -6
1491432649721,36, 0, 4, 3, 0, 2, 3, 16
1491432649736,8, -15, -10, 0, 2, 2, 2, 1
1491432649744,9, 0, -4, -3, -1, 0, -2, 3
1491432649751,3, 5, -2, 0, -3, 0, 1, -4
1491432649767,-17, -7, 4, 1, 2, 0, -1, 6
1491432649773,38, 31, 10, 5, 2, -1, -2, -3
1491432649781,-8, -5, -4, -3, -5, -4, -1, -1
1491432649796,4, 8, -1, -1, -2, 1, -1, 2
1491432649803,5, 2, -4, -2, -4, 1, -2, 2
1491432649804,-4, -4, 1, 2, 1, -1, -3, -2
1491432649810,-23, -4, -7, -5, 1, 1, 0, -4
1491432649811,28, -10, -8, -3, -3, -2, -2, -1
1491432649825,17, 1, -3, -1, 1, 0, -1, -1
1491432649833,10, -17, -5, -2, -1, -4, -3, -3
1491432649848,11, 6, -4, -3, -1, 2, -2, -1
1491432649856,-8, 1, 1, 1, 1, 0, 0, -2
1491432649863,-2, -3, -2, 4, 8, 1, 0, -5
1491432649864,-18, -1, -1, 6, 2, -2, 0, -1
1491432649870,19, 5, -6, -3, -3, -2, -2, 4
1491432649871,-33, -9, -3, -9, -6, 1, -1, 0
1491432649885,8, 8, 2, -5, -3, -2, -1, 1
1491432649886,-2, -4, 0, 2, -2, -2, -2, -2
1491432649893,10, -2, -2, -7, -3, 2, -1, -7
1491432649909,0, 0, 7, 55, 10, 5, 1, 1
1491432649916,-13, 4, 1, 26, 6, 0, -5, 6
1491432649931,7, -4, 0, -25, -6, -2, -1, -4
1491432649934,-18, 4, 0, -2, 0, 1, 3, 1
1491432649945,-3, -4, -1, 3, -6, -3, 0, 2
1491432649946,-5, -2, -1, -9, -5, -4, -5, -2
1491432649953,-5, -2, -7, -10, -2, -2, -2, 12
1491432649961,1, 1, -3, -11, 1, 1, -3, 9
1491432649976,-16, -3, 4, 0, 0, -3, -6, -8
1491432649983,-1, -10, -3, 1, -4, -1, -1, 12
1491432649984,16, 24, 5, -4, 0, 1, -2, 0
1491432649990,2, -13, -9, -5, -3, -1, -2, 5
1491432649991,-2, 9, 6, 0, 1, 0, 2, -2
1491432650005,-24, -9, -2, 7, 4, 0, -2, -5
1491432650006,-6, -8, -4, -17, -7, -7, -7, -23
1491432650013,11, -4, -5, -7, -13, -7, -5, -5
1491432650022,-11, -5, 0, 6, 6, -1, 6, 0
1491432650036,-25, -12, -8, -9, -4, 0, 3, 9
1491432650043,11, 8, -1, -6, -2, 2, 1, 4
1491432650044,7, -3, -2, -4, -1, 1, -4, -3
1491432650051,17, -7, -4, 3, 4, -1, 4, 5
1491432650066,23, 14, 13, -2, -7, 0, 8, 7
1491432650073,-3, 33, 8, -1, 0, 2, -2, -2
1491432650081,-2, -23, -10, 0, 1, 0, 1, 2
1491432650096,-11, -11, -1, -1, 3, -3, 1, 6
1491432650103,-4, 1, 3, 3, 5, 1, -1, -4
1491432650104,-6, 1, -6, 0, -6, 0, -1, -10
1491432650111,26, 3, 0, 17, 4, 1, -2, -17
1491432650125,-25, -12, -6, -9, -9, -5, -5, -4
1491432650133,27, -8, -8, -3, -3, -2, -3, -8
1491432650141,10, 35, 8, 0, 2, 1, 2, 16
1491432650156,-9, -6, 0, -1, 0, 2, 1, 4
1491432650164,11, -6, -6, -24, -2, 4, 2, 15
1491432650171,-19, -2, -1, -5, 4, 1, 4, -1
1491432650186,-35, -9, -1, 2, 0, -4, 4, 3
1491432650193,24, -6, 0, 6, -2, 1, 3, -8
1491432650201,0, -5, -3, -1, -1, -3, -3, 5
1491432650215,-7, -1, 0, -6, 3, 1, -3, -5
1491432650223,20, -4, -2, 9, 5, 1, -4, -10
1491432650231,2, 2, 1, -4, -10, -3, 5, 16
1491432650245,-67, -18, -7, 2, 5, -2, -7, -17
1491432650253,1, 1, -3, -2, 0, 1, 0, 4
1491432650268,-15, -10, -5, -2, 0, 1, -5, -12
1491432650269,15, -1, -3, 0, -5, -7, 1, -4
1491432650276,-18, -7, -4, -2, 0, -2, -5, -8
1491432650284,8, 1, 0, 3, 10, 6, 6, 11
1491432650297,11, -2, 1, 0, -6, -3, -1, 6
1491432650306,18, 14, 6, 2, 1, 3, 1, 0
1491432650314,36, 4, -2, -6, -5, -8, -12, -5
1491432650328,-2, -3, -2, -4, -5, -5, -2, -1
1491432650336,-18, -9, -3, -4, 1, 2, 2, 0
1491432650344,-2, -4, -2, 1, 5, 3, -4, -10
1491432650358,24, 3, 1, -3, -7, -6, -4, -2
1491432650359,-17, 0, -1, 2, 1, 3, 5, 6
1491432650366,6, -2, -4, -2, -4, -14, 0, 3
1491432650373,-10, 0, 2, 4, 1, 2, 8, 8
1491432650395,25, 0, 1, 0, -1, 7, 1, 3
1491432650396,25, -3, 0, 0, 2, 10, 9, 1
1491432650404,-8, -4, -1, 1, 1, -2, 1, 9
1491432650417,-18, -6, -1, -2, 0, -6, -6, -8
1491432650425,-30, -2, -1, 3, 1, 4, 4, 11
1491432650426,0, -1, -4, -2, -7, -6, -4, -18
1491432650433,-34, 3, -1, 3, -3, -1, -4, -23
1491432650448,58, 2, -2, -6, -11, -5, -8, 0
1491432650455,-8, -2, -3, 0, -3, -2, -2, 8
1491432650463,-15, -5, 0, 6, 1, 4, 4, -1
1491432650479,8, -1, 0, 0, 2, -4, -5, -8
1491432650486,-6, 1, 1, -3, 1, 1, -1, 4
1491432650493,-28, -14, 0, -1, 2, -3, -5, 1
1491432650508,-4, -5, 2, 1, 2, 2, 2, 8
1491432650516,18, 5, 0, -2, -5, 0, -2, 0
1491432650524,8, 0, -1, -1, -3, 0, 2, 18
1491432650538,-18, -3, 0, -3, -5, -3, 0, -5
1491432650539,3, -4, -2, -3, -1, -8, -3, -6
1491432650546,-31, -13, -4, -1, 2, 0, -1, -3
1491432650556,2, -11, -9, -1, -2, 3, 0, -3
1491432650568,-2, -17, -8, -4, -1, -2, -2, -3
1491432650575,-2, 8, 2, 1, 3, 1, 1, -4
1491432650583,-15, -6, -2, 0, 2, 3, 5, -27
1491432650606,-9, -8, 0, -1, -1, 0, 0, 1
1491432650607,2, 3, 2, -1, -4, -4, 0, -5
1491432650613,-1, -32, -5, -4, -2, -3, -1, 2
1491432650628,-3, 19, 7, 1, 4, 1, -3, 11
1491432650635,-11, -11, -4, 1, -1, 3, 0, 5
1491432650643,23, 11, 1, 1, -2, 1, 0, 4
1491432650644,-20, -23, -11, -4, -6, -3, -6, -4
1491432650658,-8, -1, -5, -5, 1, 2, 4, -1
1491432650666,-17, 13, 3, 1, 2, -1, -3, 1
1491432650673,-3, -11, -4, -2, -3, -5, 4, 0
1491432650688,29, -1, -2, -1, -2, -1, 2, 2
1491432650696,0, 4, 4, 2, -1, -2, -2, -15
1491432650703,8, 13, 4, -2, -7, -2, 0, -18
1491432650718,1, 1, -1, -1, 2, -2, -1, 6
1491432650726,-1, -3, 0, 1, 2, -2, -1, 5
1491432650734,-2, -12, -11, -3, -3, -4, 6, 9
1491432650748,-8, -10, -5, -3, -5, -4, -3, -7
1491432650755,-5, -6, -2, -1, 5, 2, -5, 0
1491432650763,7, 8, 1, -1, 0, 3, 3, 3
1491432650764,-2, -7, -5, -1, -2, -1, -2, 6
1491432650778,-3, -17, -3, -1, -7, -2, -4, -13
1491432650786,0, -4, 4, 4, 15, 3, 1, 13
1491432650793,0, -1, -2, -4, -4, 4, -11, -9
1491432650808,-4, 2, -4, -1, -4, 2, -5, 0
1491432650816,8, 3, 1, -1, 3, -5, 3, -19
1491432650823,-1, -7, -1, 0, -2, -3, -5, 7
1491432650824,0, 2, -1, -2, 7, -1, 2, -23
1491432650839,-3, -4, 0, -1, 2, -3, 3, 33
1491432650840,-6, 6, 0, -4, -4, -3, -3, -11
1491432650846,5, 1, -1, -1, -1, -3, 2, 17
1491432650853,-3, -4, -2, -1, 0, 0, 10, 14
1491432650868,5, 3, 0, 0, -3, -1, 2, 7
1491432650876,3, 5, 3, 0, -3, 2, 3, 38
1491432650883,-3, -9, -2, 2, 0, -1, -16, -77
1491432650884,1, 0, -1, 1, -2, 0, 2, 5
1491432650899,6, 3, -1, 1, 1, -4, -3, -7
1491432650912,-3, 8, 5, -3, -6, 1, -9, -4
1491432650914,3, -2, -1, 0, 6, 0, -5, 1
1491432650928,5, -6, -3, 0, 0, 2, 2, 9
1491432650936,0, -2, -3, 1, -2, 0, -5, 2
1491432650945,-12, -4, -2, -1, -3, 0, 1, -12
1491432650958,6, 7, 2, 1, -2, -3, 2, -1
1491432650966,5, 5, -3, -2, -4, -1, 0, 16
1491432650973,-1, -5, -2, -3, -1, 0, -1, 0
1491432650988,-9, -3, 0, -2, -2, -3, -3, -31
1491432650995,-12, -3, -3, -4, 0, 3, 6, 0
1491432650996,7, -1, 0, -1, -1, 0, -2, 0
1491432651003,4, -4, -2, 0, -1, -3, -1, 5
1491432651018,-16, 0, 0, -2, -2, -1, -4, -14
1491432651026,1, -3, 0, 1, 1, 1, -1, -16
1491432651033,2, -3, -2, 3, 3, 3, 6, 28
1491432651048,14, -1, -2, 0, -1, -9, 4, 30
1491432651055,-7, -5, -1, 8, -1, 3, 6, -19
1491432651063,-25, -1, -3, -2, -1, 4, 0, -16
1491432651078,-5, -3, 0, -4, -2, -2, -2, -2
1491432651086,2, -1, 0, -2, 3, 0, -3, -14
1491432651093,5, 2, 0, -3, -3, 0, -5, -18
