timestamp,1,2,3,4,5,6,7,8
1491432155753,2, 3, 2, -2, 0, -1, 0, 0
1491432155754,-3, -3, 0, 1, 0, -2, 1, -1
1491432155760,-1, 1, -2, -4, 0, 0, 1, -1
1491432155767,-2, -2, -1, -2, 0, -1, -2, -1
1491432155782,-1, -3, -2, 0, -3, -3, 0, 0
1491432155791,-1, 1, 0, -2, -4, -1, -3, 0
1491432155799,-1, 1, -1, -2, 1, -1, -2, 1
1491432155812,-2, -4, -6, -2, -3, -1, 0, 2
1491432155822,1, 0, -2, -2, -3, -1, 2, -1
1491432155823,2, -1, 2, 0, -1, -2, 2, 1
1491432155827,2, 2, 2, 2, 0, 1, 2, -1
1491432155849,1, -3, 0, 1, 0, 2, 1, 4
1491432155850,1, -1, -2, -1, -1, -1, -1, -3
1491432155864,1, 2, 0, 1, 1, -3, -1, 2
1491432155872,-1, -3, 0, -3, -1, -1, 0, 1
1491432155879,-1, 0, -1, -3, -1, 0, -2, -2
1491432155901,-2, -3, 1, -1, 0, -2, 0, -1
1491432155902,-1, -1, 1, -2, -1, -2, -3, -6
1491432155909,2, 0, -2, -2, 2, 0, 1, 2
1491432155924,-3, 0, -1, -3, -1, -2, 0, -1
1491432155933,1, -1, 3, 1, 0, 0, -1, -3
1491432155939,0, -2, 0, -1, 1, 1, 0, 0
1491432155954,-3, 2, -1, -1, -3, -3, -3, -2
1491432155961,-2, -1, -4, 1, -3, 0, 0, -1
1491432155969,1, 2, -2, -2, -3, -1, -2, -5
1491432155984,2, -2, -1, -3, 0, -2, -3, 1
1491432155992,-1, 0, 0, -1, 0, 0, -1, -1
1491432155999,0, 0, -2, -1, 1, 0, -4, -1
1491432156000,-1, 0, -2, 0, -1, 0, -1, -2
1491432156014,-2, 2, -1, 0, -1, 0, 1, 1
1491432156022,-5, 1, -3, -2, -2, -2, -1, -2
1491432156029,-2, -2, -1, -4, -1, -1, 2, 1
1491432156030,-4, 2, -4, 0, 0, -2, -3, 0
1491432156044,0, -2, 1, -2, 0, -2, -3, -4
1491432156054,2, 0, 3, 1, -2, 2, 1, 2
1491432156059,2, 6, -1, 1, -1, -1, 0, -1
1491432156074,-1, 0, 0, -1, -1, -3, 0, -3
1491432156082,0, -3, 3, 0, -1, 1, 0, -2
1491432156090,-4, 1, 2, -1, -1, -1, -1, 1
1491432156104,-2, 3, 1, 1, -2, 0, 3, 3
1491432156112,-1, 1, 1, -1, 0, 0, -3, -2
1491432156119,-1, 0, 0, 1, 1, -2, 0, -2
1491432156141,1, 0, -1, -1, 0, -2, 1, 1
1491432156142,-1, 1, -3, 1, 0, -1, 0, -5
1491432156143,0, 0, -2, -3, -3, 1, 0, 0
1491432156153,-4, 0, 2, -5, -1, 0, 0, 1
1491432156164,0, -1, 0, 1, -3, -2, -1, -2
1491432156172,1, -7, -1, -1, 0, -2, -3, 0
1491432156179,-2, -4, 1, -1, -1, 3, -2, 0
1491432156198,1, 2, -2, -2, -1, 0, 2, -1
1491432156199,0, -5, -2, 0, 0, 1, -1, 1
1491432156202,-1, -1, -3, -2, 2, -1, -3, 0
1491432156210,1, -1, -3, -3, 1, 0, 0, -1
1491432156224,-3, 2, -2, 3, 1, 0, 2, -2
1491432156232,0, -3, -1, 0, -1, 1, -1, 1
1491432156239,-1, 3, -1, 1, -1, -4, 1, -2
1491432156254,1, -3, -3, 1, -3, -3, -2, -1
1491432156264,1, -4, -2, -1, -2, 1, -2, 1
1491432156271,1, -1, 0, 1, -2, -2, -1, -3
1491432156284,-1, 0, 1, 1, -3, -1, -2, 0
1491432156285,-1, -1, 1, -2, -3, -3, -1, -2
1491432156292,0, -1, -1, -1, 0, -1, 0, 1
1491432156299,0, 0, -1, -3, 1, 0, 0, 4
1491432156314,0, 5, -4, 1, -1, -1, -1, -1
1491432156322,-2, -3, -2, 0, -2, -1, 1, -3
1491432156329,0, 2, -1, -1, -2, 0, -1, -1
1491432156330,-4, -2, -4, -3, 0, -2, 1, 0
1491432156344,3, 2, 1, 1, 1, -2, 0, 2
1491432156353,2, 2, 1, -2, -1, 1, 1, -1
1491432156359,1, -3, -2, -1, -2, 0, -1, -2
1491432156374,0, -4, -3, 0, -2, -3, -1, -1
1491432156381,-1, -4, -1, -2, -2, 2, -2, 0
1491432156389,-3, -3, -5, 1, 1, 0, -1, -3
1491432156404,-3, 1, 0, -1, -1, -3, -2, -2
1491432156412,1, -2, 2, -2, -2, -1, 1, 2
1491432156419,0, -2, -3, -2, -1, 0, -2, -1
1491432156434,1, 2, 2, 1, 1, 0, -6, 0
1491432156442,-3, 0, -2, -3, -1, -1, -1, -4
1491432156449,-5, -1, -4, -4, -3, 0, 2, -3
1491432156464,3, 2, -1, -1, -1, -2, -1, -1
1491432156472,-1, 3, 3, -1, -1, -1, -3, 0
1491432156479,-3, 1, 0, 0, 0, 0, -1, 1
1491432156494,1, -1, 1, 0, -3, 0, 0, -2
1491432156501,1, -2, -1, 1, -2, -2, 3, 1
1491432156510,-2, 0, -1, -1, -1, -2, -4, -2
1491432156524,-3, 0, 1, -2, 1, -2, -1, -1
1491432156532,-1, -1, -2, 0, -1, -1, 0, 1
1491432156539,-1, -1, -4, -2, 0, 2, 0, 0
1491432156554,1, 2, 1, -2, 1, -1, -1, 1
1491432156562,1, -2, 0, 0, -1, -1, 1, 0
1491432156569,-2, 3, 0, -4, -2, -1, -1, -4
1491432156570,-1, -1, -2, -2, 0, -1, 0, 0
1491432156584,-1, -1, 0, -2, -2, -1, 0, 1
1491432156592,-3, -2, -2, 1, -2, -2, -3, -4
1491432156593,-2, 0, 0, -1, -2, -2, 2, 1
1491432156599,-2, -4, -2, 3, -1, 2, -1, 2
1491432156614,-1, 3, 0, 0, 0, 1, -1, -2
1491432156621,1, 2, -1, -2, -2, 0, -2, 2
1491432156629,0, -3, 0, 1, 0, -3, -2, -4
1491432156645,-2, -3, 2, 0, -1, 0, -5, -4
1491432156652,-1, 1, -4, -4, 1, -1, 0, 1
1491432156659,-2, -4, -1, 1, -2, -2, -1, -3
1491432156674,-2, -1, -1, 1, -1, 0, 2, 2
1491432156681,0, 1, 0, 0, -1, -1, -1, 0
1491432156682,0, -4, -1, 0, 1, 0, -2, -2
1491432156691,0, -4, 1, -2, 0, 0, -2, -4
1491432156704,0, 2, 3, -1, -1, 1, -1, -1
1491432156712,-1, -1, -1, 0, -1, -1, -2, -3
1491432156719,0, 4, -1, -2, -3, -3, 0, -3
1491432156734,-4, 4, -1, -1, -2, -1, -2, 0
1491432156741,1, 2, -2, -2, -2, -1, 2, 0
1491432156750,0, -2, -1, -3, 0, 0, 2, -1
1491432156764,-1, -2, 1, -1, 1, 0, -1, 2
1491432156772,-1, -3, 0, 0, 0, -1, -2, -2
1491432156786,4, 2, 0, 0, -1, 1, 1, 0
1491432156795,-2, 0, -1, -2, -1, -3, -2, -2
1491432156801,-4, 1, -4, -4, -1, 1, -2, -4
1491432156816,-1, -1, 0, 1, -2, -1, 0, 1
1491432156824,-7, -6, -1, 1, -1, -2, -3, -2
1491432156833,4, 0, -2, -2, -2, 0, -2, 1
1491432156847,-1, -2, 1, -2, -3, -2, -2, -2
1491432156855,-4, -2, -2, 2, -2, -1, -4, -6
1491432156861,-1, 2, 0, -2, -2, 0, 1, 2
1491432156877,0, 0, -1, 0, -1, 1, 0, -2
1491432156884,-1, -2, 0, -2, 2, 0, 1, 1
1491432156892,1, 5, 1, -1, 0, 1, 3, 5
1491432156906,-1, 1, -4, -2, 0, -3, -3, -3
1491432156914,3, -2, -3, 2, -1, 2, -3, -2
1491432156921,2, 0, -4, -1, 0, 0, 1, 1
1491432156936,-2, -5, -2, -2, 1, -1, -2, -1
1491432156944,2, -2, -4, 0, 1, -2, -2, -2
1491432156952,-2, -1, -1, 0, 0, -1, 1, -1
1491432156966,1, 2, -3, -1, -2, 0, 1, 1
1491432156974,-3, 1, -1, -3, -2, 0, 0, -1
1491432156982,-2, 0, 0, -2, -1, -4, -2, 1
1491432156996,-1, 0, -3, -2, 0, -2, -1, 1
1491432156997,-2, 1, -1, 2, -2, 0, 0, 4
1491432157004,0, -1, 0, -1, 0, -1, 1, -1
1491432157013,-1, 0, -3, -2, -1, -4, -1, -1
1491432157026,-4, -2, -1, -1, 1, -1, 1, 1
1491432157027,1, 0, 0, 2, 0, 0, -4, -2
1491432157034,4, -3, 0, 1, 0, -1, 1, 3
1491432157041,0, -1, -2, 1, -1, 0, 2, 1
1491432157058,3, -1, -3, 0, 0, 0, 1, 1
1491432157066,-1, 2, 2, -3, 0, 1, 2, 0
1491432157079,0, 0, -1, -1, 0, 1, 1, -1
1491432157086,-1, 1, -1, 0, 0, -2, -1, -3
1491432157094,0, 3, 0, -2, -4, -1, -3, -1
1491432157102,2, -3, 3, -2, -3, 2, 1, -3
1491432157117,-1, -3, -3, 0, -1, -2, -1, 4
1491432157124,-2, 4, -2, 0, 1, -2, -1, 0
1491432157132,-2, -1, -1, 0, 1, -1, 0, -2
1491432157146,0, 0, 2, -2, -1, -1, -3, 0
1491432157154,0, 1, 3, -3, 1, 1, -1, 2
1491432157161,-2, -3, -2, 2, -1, 0, -4, 0
1491432157184,-1, 1, 3, -1, -2, -2, -1, -4
1491432157185,-1, 3, -4, -1, -1, -1, -3, -2
1491432157192,-4, 0, -3, -3, 2, 2, 0, -2
1491432157206,2, -2, 1, -2, -3, -2, -2, 0
1491432157216,1, -3, 0, 1, -4, -3, -3, -2
1491432157221,-3, -2, -2, -1, -3, -3, 1, -3
1491432157237,1, 2, 1, -2, 1, 0, 2, 0
1491432157244,-1, 1, -1, 1, -2, 0, -1, 1
1491432157252,-3, 0, -3, -1, 1, 0, 0, -2
1491432157266,-2, 3, -1, -1, 0, -1, 0, 0
1491432157275,-4, -5, -1, 0, -3, -6, -3, -3
1491432157284,0, -3, -2, 0, 1, 0, -1, -5
1491432157296,3, 0, 3, 1, 0, -2, -1, -2
1491432157304,-1, 1, 0, 0, 1, 1, -1, 2
1491432157313,0, 0, -3, 0, -2, -2, -1, 0
1491432157326,4, 0, 0, -1, 0, -2, -1, 1
1491432157334,0, 2, 0, 1, -1, 2, 2, 1
1491432157341,-2, -3, -7, -1, 0, -1, -3, -3
1491432157356,2, -1, 0, -3, 0, 0, -4, -1
1491432157364,2, 1, -1, -2, -2, 0, 2, 1
1491432157372,0, 1, -3, -3, -2, 0, 1, 3
1491432157386,0, 1, -1, -1, 0, 0, 0, -2
1491432157394,0, -2, -1, -1, 1, 1, -1, 2
1491432157402,-1, 0, 0, -3, 0, 0, -1, -4
1491432157416,-2, -5, -4, -1, 0, -1, -2, 0
1491432157424,0, -5, -1, 2, 0, -3, -3, 1
1491432157432,0, -5, 2, -1, 0, 0, -1, -2
1491432157446,-6, -2, 1, 0, -3, -4, -4, -6
1491432157454,3, 0, 0, 1, -2, -1, -2, -2
1491432157461,1, -2, 2, -1, 0, 0, 1, 3
1491432157477,-1, 1, -1, -1, -1, -2, 1, -3
1491432157485,3, 1, -3, -2, -1, -1, 1, 3
1491432157500,-1, 4, 0, 0, -2, 1, 0, -1
1491432157506,0, 2, 1, -1, -2, 0, 1, 1
1491432157514,0, -1, 0, 0, 2, -2, -4, -3
1491432157522,-3, 1, -3, -2, 0, -1, 1, -1
1491432157536,0, 3, -2, 0, 1, 1, 1, 1
1491432157537,-2, 2, -2, -2, -4, -1, -2, -1
1491432157544,0, -4, -2, 0, -1, 1, -3, -2
1491432157552,-3, 1, 0, 0, -1, 0, 2, -1
1491432157566,-3, -4, 0, -2, 1, -1, 2, 1
1491432157574,-1, -1, -1, -1, -2, -2, -3, -3
1491432157581,-1, 2, -3, -1, -3, 0, -3, 3
1491432157596,0, -1, -1, 0, -1, 1, -3, -5
1491432157597,-2, 3, 0, -1, -2, 1, -1, 1
1491432157604,1, 10, 0, 0, -1, 0, 1, 2
1491432157612,-3, -3, -3, -2, -2, -2, 0, -3
1491432157626,-2, -2, 1, -2, 1, -1, 0, -1
1491432157634,0, 0, 1, -3, -1, -4, -2, -5
1491432157641,-3, 0, -4, 3, 0, -2, 1, -1
1491432157657,-1, 0, -5, 1, 1, 2, -1, -3
1491432157664,2, -3, 0, 0, -1, -1, -2, -2
1491432157672,0, -1, -2, -2, -2, 0, -1, -1
1491432157689,-1, -6, -2, 1, 0, 0, 0, 0
1491432157695,0, -2, 0, -1, 0, -2, -1, -1
1491432157708,-2, 1, 0, 0, 0, -2, -1, -2
1491432157716,2, -4, 1, 1, 0, -3, 1, 5
1491432157724,3, -4, -1, -1, 1, 0, 2, -1
1491432157739,-3, -1, -3, -1, -3, 1, 2, 1
1491432157746,0, -1, 1, 0, -2, -1, -1, -2
1491432157755,2, 2, 1, -1, 0, 0, 1, 2
1491432157770,0, 3, -1, -1, -2, -1, -1, -2
1491432157776,-2, 2, 0, -4, -1, -1, 0, -2
1491432157777,0, -1, -4, 0, 2, -1, -2, 1
1491432157784,-4, 0, -2, -2, -3, -4, -1, -3
1491432157799,2, -1, 0, 1, -1, 1, 1, 0
1491432157806,1, -5, -1, -3, 0, 0, -1, -2
1491432157814,-4, 1, -2, -2, 0, -1, -1, -3
1491432157829,2, -1, 1, -2, 0, 0, 1, 3
1491432157830,1, 0, -1, -3, -3, 0, -2, -2
1491432157836,0, -4, -2, -1, -2, -3, -2, -1
1491432157844,-2, 2, 0, 0, 0, -1, 2, -2
1491432157859,-1, 0, 3, -3, 1, -1, 0, 1
1491432157866,-5, 1, -2, -1, -1, 0, 0, 1
1491432157874,1, 2, 1, 0, 0, -1, -1, -5
1491432157889,-3, 3, -3, -3, -2, -2, -3, -2
1491432157896,-3, -3, -3, -1, -3, -2, -2, -1
1491432157897,-3, -1, -6, -1, -1, 1, -1, 2
1491432157905,0, -1, -2, 1, 0, 0, -3, -1
1491432157919,-4, 0, -3, -2, -2, -2, 1, -1
1491432157926,-3, 3, -3, 1, -2, -1, 2, 4
1491432157934,1, 4, 2, -1, -1, -3, 0, -2
1491432157957,-1, -1, 3, -2, 0, 0, 0, -1
1491432157958,1, 1, 1, 0, -2, -2, 0, 1
1491432157964,1, -2, 0, -1, -1, -2, -5, -4
1491432157980,2, -1, 0, 0, 0, 2, 0, -1
1491432157986,-2, -2, -4, -2, 1, 0, 1, 3
1491432157994,-4, 2, -4, 0, -2, -1, -3, -7
1491432158008,-1, 1, 0, 1, -1, -2, -4, -1
1491432158009,2, -2, -2, -1, 1, -1, -1, 2
1491432158016,-6, -6, 1, -4, 1, -2, -4, -8
1491432158017,-1, -1, 5, -1, 1, 1, 0, 1
1491432158025,0, -2, -3, -1, 0, -2, 0, -2
1491432158041,-1, 0, 0, -1, -2, -1, 0, 2
1491432158046,0, 4, -1, -2, -1, -1, -4, -4
1491432158058,1, -1, 0, 2, 1, 1, 1, 3
1491432158069,-2, -2, -1, 1, -3, 2, 1, 0
1491432158077,0, 2, -2, -2, -3, -1, -2, -2
1491432158084,-1, 0, -1, -3, -2, -3, 2, 1
1491432158099,-3, -3, -3, -2, -4, -2, -3, -2
1491432158109,2, -2, 0, 0, 1, 1, -3, -2
1491432158115,0, 0, 1, -1, 0, -2, 0, 0
1491432158129,-1, 1, 3, -1, 1, 0, -1, -2
1491432158136,0, -1, 1, 0, 1, -1, -2, -2
1491432158144,2, 0, 0, -3, 0, -2, 0, 0
1491432158160,-2, -2, -4, -3, -5, 0, -3, -2
1491432158166,-1, 2, 0, -1, -3, -1, -1, 1
1491432158175,1, -2, -2, -2, -2, -2, 2, -3
1491432158189,-3, -2, -3, 0, -2, -1, 1, 0
1491432158198,-2, -1, -2, 1, 1, -1, -1, -1
1491432158204,-1, 1, -1, 3, -1, -2, 0, 1
1491432158219,0, 3, -4, -3, 0, -2, -3, -5
1491432158226,-1, -3, -2, 0, 0, 0, -1, 1
1491432158234,-1, 0, 0, -3, 1, -2, -1, -2
1491432158235,1, 1, 0, -1, 1, -1, -1, 2
1491432158249,-1, -4, 0, -3, -3, 0, -1, -1
1491432158256,-3, -1, 1, -1, -1, -2, 1, 1
1491432158264,-1, 2, 1, 0, 0, 0, 1, 0
1491432158279,-4, -2, 1, -2, 0, -1, -3, -1
1491432158286,2, -1, 0, -2, 1, 1, -3, -2
1491432158294,0, 0, -3, -3, 0, -2, -1, -4
1491432158308,0, 2, -2, 0, 0, -1, 1, 2
1491432158309,1, -3, -3, -1, 0, -1, -1, -3
1491432158316,-5, -4, -3, 3, -2, -1, -5, -1
1491432158317,1, -1, 0, 0, -2, 1, 1, -1
1491432158324,-3, -1, 1, -3, 4, -1, -1, -4
1491432158325,0, 2, -1, 0, -1, 0, 2, 0
1491432158339,0, 0, 0, 0, 1, -1, 0, -1
1491432158346,-2, 2, 1, -1, -1, -1, -3, -1
1491432158354,-2, 0, 0, -1, 0, 1, 2, -1
1491432158369,-4, 5, 1, -1, -2, -5, -2, -1
1491432158376,2, 1, -1, 2, -2, -1, -1, 2
1491432158384,2, -5, -1, -2, -3, -1, 2, 0
1491432158399,-1, -2, -3, -1, -2, -2, -3, -3
1491432158406,-2, -5, -1, 1, 0, -1, 0, -2
1491432158414,-2, 0, 2, -2, 0, 0, -2, -2
1491432158428,1, 1, -1, 0, 0, -2, -2, -1
1491432158436,-1, -3, -2, -2, 0, 3, 1, 0
1491432158444,-1, 1, -4, -1, 0, 1, 2, 1
1491432158459,0, 1, 2, 0, -1, -4, 0, -1
1491432158466,-1, -1, 1, -4, -1, -2, -3, -4
1491432158474,-3, -1, 1, -3, 0, -1, -1, -3
1491432158488,-2, 3, -1, 3, 0, -2, 0, -3
1491432158496,-2, -4, -1, -1, -2, -3, -1, -1
1491432158504,2, -1, -3, -2, -3, 0, -1, -1
1491432158519,-2, -2, -3, 1, -1, 0, -1, 0
1491432158526,2, -2, 0, -5, 3, 1, -3, -2
1491432158527,-1, -3, 2, -2, -1, -1, -2, 3
1491432158534,1, 0, -3, -1, 0, 0, -2, 4
1491432158548,-3, 0, -3, 1, 1, -2, -1, -2
1491432158556,3, 0, 4, 1, -1, -2, -1, 3
1491432158564,1, -4, -2, 1, -1, -1, 0, 2
1491432158579,-2, 2, -5, -2, -1, -1, 0, -1
1491432158587,-2, -1, 0, -3, 0, 0, -2, -5
1491432158594,0, -1, -4, -1, 3, 0, 0, 0
1491432158609,2, -4, -2, -3, -2, 0, 0, 1
1491432158618,0, 1, -2, -1, -3, -1, 2, 0
1491432158624,-1, -1, -3, -3, 1, -1, 1, -1
1491432158646,-2, -3, -2, -5, -1, -2, 0, 2
1491432158647,-2, -1, -2, 1, -1, 0, -4, -3
1491432158662,-4, -1, -1, 1, -3, -2, -1, -2
1491432158668,0, -2, 0, -1, 1, -3, -2, -2
1491432158676,2, -2, -1, 2, -1, -1, -1, 0
1491432158691,0, 2, -2, 0, -3, -1, -1, -1
1491432158699,2, 0, 1, -1, -2, 2, 1, 1
1491432158706,-6, -1, -4, -2, 0, -2, -4, 1
1491432158707,-4, -1, -2, 1, 1, -1, 1, 1
1491432158721,-4, 3, 3, -1, -1, -2, -3, -2
1491432158728,-5, -2, 2, 1, 0, 1, 0, -1
1491432158736,2, -4, 1, -2, -2, 0, 0, 3
1491432158737,-1, 0, -2, 1, -1, 0, 0, 1
1491432158751,1, 2, -2, 0, 0, -2, 0, -2
1491432158759,-2, -2, -2, -1, 0, -2, -1, -5
1491432158766,-1, 1, -1, -4, -2, 2, -2, 3
1491432158781,-3, 2, 0, 0, 0, -1, -1, -2
1491432158788,0, 0, 0, 0, -1, -1, 0, -3
1491432158796,1, -4, -1, 0, -2, -2, 1, -1
1491432158811,-2, -1, 1, 1, 1, -1, -2, 1
1491432158819,-2, -1, -1, -2, 0, -1, -2, -3
1491432158827,-1, -5, -1, -2, 1, 0, 0, -2
1491432158842,1, -3, 0, -2, -1, -2, -1, 2
1491432158849,-2, 0, -1, 0, 0, -1, 1, 1
1491432158850,0, 1, -2, -2, -2, -1, 0, 2
1491432158857,3, 1, -1, -3, 1, 0, 0, -1
1491432158871,3, -3, -2, 0, -1, 0, -2, -2
1491432158879,1, 1, -1, -1, -3, -1, -1, -1
1491432158886,2, -1, 1, 0, -1, -3, 1, -2
1491432158904,0, 3, 0, 1, -1, -1, -3, -7
1491432158908,1, 0, -4, -1, 1, 0, -4, 0
1491432158917,-2, 0, -2, -3, 1, 1, 0, 2
1491432158931,0, 3, 0, -1, -1, 0, 0, 2
1491432158939,-2, 1, -1, 2, -1, -1, 0, 0
1491432158946,-4, -2, -3, 1, 1, -1, -1, 0
1491432158947,0, -4, 0, -4, -2, -1, -1, 1
1491432158963,3, -2, 1, 0, 0, -1, 0, 0
1491432158968,-1, -1, -2, 3, -1, -3, -1, -1
1491432158976,3, -1, 2, -1, -1, -3, -1, -2
1491432158991,-2, -3, 1, -1, -2, -1, -1, -2
1491432158999,-4, -2, -2, -3, -1, 1, 1, 0
1491432159006,-1, 1, 1, 0, 1, -2, -1, 1
1491432159021,0, 1, -2, 1, -2, 0, -2, -5
1491432159030,0, 1, -2, -3, -1, -2, -2, -3
1491432159036,-1, 0, 2, 1, -1, 2, 0, -1
1491432159037,-3, -1, 0, 1, 0, 1, -1, 1
1491432159051,-1, 6, -1, -4, 0, 0, 2, -5
1491432159059,2, -1, -1, -1, -1, 1, -4, -2
1491432159066,2, 2, -1, 0, -3, 1, -2, -1
1491432159082,-2, 1, -1, -1, -2, -3, 1, 0
1491432159088,-1, -2, 1, 1, -1, -2, 3, -1
1491432159097,-1, 2, 3, 1, 1, 0, -1, 0
1491432159117,3, 1, 0, -1, -1, 0, 1, 0
1491432159119,-2, -3, 1, 0, -1, -2, 2, 1
1491432159120,-1, 0, 2, -3, -1, 0, -1, 1
1491432159126,-1, -2, -1, -2, -4, -1, 1, 0
1491432159127,0, 1, 0, 1, -4, -1, -4, -2
1491432159141,0, -1, -1, -2, -1, -2, -1, -3
1491432159148,2, 0, -2, -1, 0, -1, 1, 1
1491432159156,1, -3, -1, -4, 1, 0, 0, 3
1491432159171,0, -3, -1, -1, 0, 0, 1, -1
1491432159179,1, 4, 0, -2, -2, -2, -1, 0
1491432159186,-3, -2, -1, -3, 0, -1, -7, -3
1491432159201,-1, -1, -2, 0, 0, -1, -2, -3
1491432159208,-2, 0, 0, 1, -2, 0, 0, 1
1491432159216,-3, 0, -2, 0, 1, -1, 3, 2
1491432159232,-4, -1, -1, -2, 1, -2, -1, -1
1491432159239,3, -1, -2, 1, -2, 0, -1, 1
1491432159246,0, -1, -2, 1, -1, 1, -2, -4
1491432159261,2, 0, -2, -1, 0, -1, 0, -2
1491432159268,-1, 0, 1, 0, -1, -2, -4, -2
1491432159276,-2, 2, 0, -3, -1, -3, -1, -2
1491432159291,-1, -1, 0, -2, -2, 0, -1, -2
1491432159292,-2, 0, -2, -3, 0, 2, 0, 2
1491432159299,-2, -3, 0, -3, -1, 0, -1, 0
1491432159306,2, 1, 0, -2, 0, 1, 3, 3
1491432159322,-5, 1, -2, -2, -2, -1, -2, -1
1491432159328,0, 1, -1, -3, 0, 1, 3, -3
1491432159329,0, 0, -3, 0, -1, -2, 1, 0
1491432159337,0, -1, -1, 1, 2, -1, 0, -1
1491432159351,-2, 3, 0, -1, -3, -4, -2, 1
1491432159359,-3, 1, 1, 1, 0, 1, 1, -1
1491432159366,2, -3, 2, -2, 1, 0, 1, -1
1491432159381,-2, 2, -2, 1, 1, 0, -3, -3
1491432159390,-1, -2, 0, 0, 1, 0, -2, 1
1491432159396,1, -2, -2, -5, 0, -1, -2, -1
1491432159415,2, -1, 2, -1, 1, -1, 2, 3
1491432159419,-2, -2, -7, -1, -3, -2, 0, 3
1491432159434,-1, 1, 0, 1, -3, 0, 0, -1
1491432159441,2, 2, 2, -1, -1, -2, -1, -2
1491432159450,-5, 0, -2, -1, -1, 0, -4, -5
1491432159457,-2, 0, 4, 1, -2, -1, -1, -4
1491432159472,1, 0, -4, -3, -1, -5, -1, -2
1491432159479,-1, 1, -1, 0, 0, 0, -2, 1
1491432159494,-4, -2, 0, -2, -1, -2, -2, -2
1491432159501,-2, -4, -2, 1, -1, -2, -1, -1
1491432159510,-1, -3, -3, 1, -2, -1, -3, -2
1491432159516,-1, -1, -2, -1, -3, 0, -1, 1
1491432159517,0, 0, -2, -1, 0, 1, 0, 1
1491432159532,-3, -4, -3, -2, 0, 0, 1, 0
1491432159540,-3, 1, 1, 2, -1, -1, -3, -5
1491432159541,0, -2, 1, -4, -1, -1, -1, 0
1491432159554,1, 2, -2, -2, 0, 0, -1, 0
1491432159561,0, -3, -2, -1, -3, 0, -2, 1
1491432159569,0, 2, -1, 0, -2, -2, 0, -1
1491432159585,-1, -1, -1, -3, 0, -1, -1, -1
1491432159592,-3, -1, 0, -1, 0, -1, 0, -3
1491432159599,2, -3, -1, -2, -2, 0, 0, 0
1491432159617,2, 2, -1, 1, -3, -2, 0, 1
1491432159621,3, -3, -4, 0, 2, 0, -1, -2
1491432159629,-1, 0, 0, -3, 1, 0, 0, 1
1491432159644,-2, 2, -2, 0, -2, 0, -1, -2
1491432159653,-1, -1, -2, 2, -2, 0, -3, 0
1491432159659,-3, 1, 1, 0, -1, -2, -3, -3
1491432159674,2, -2, 1, -1, 1, -1, 1, 0
1491432159681,3, -2, -2, -2, 0, -2, 0, -1
1491432159697,1, 0, -2, -1, -2, 0, -3, -1
1491432159704,-2, 1, -1, -1, -1, -1, -1, -2
1491432159712,-1, 1, -1, 1, 0, -1, 1, -2
1491432159719,-3, 0, -2, 0, 0, -1, 0, -1
1491432159735,-3, 2, -1, -1, 1, -1, 1, -2
1491432159741,1, 0, -1, -3, -1, 1, 2, 1
1491432159757,2, -3, 0, -2, -4, -1, 1, 0
1491432159763,-1, 2, -2, 0, -1, -2, -1, -2
1491432159779,2, 1, -3, -1, 0, 0, -3, -1
1491432159780,0, -2, 0, 0, -3, 0, -2, 2
1491432159794,-2, 0, 0, -3, 0, -1, -3, -3
1491432159795,-1, -1, -2, 0, 0, -3, -1, 0
1491432159801,-1, 0, 0, 0, 2, -1, -2, -4
1491432159809,-3, 2, -3, -2, -2, -1, -4, -4
1491432159825,0, -1, -1, -1, -3, -2, 2, -1
1491432159832,-5, -2, -2, -1, -1, -2, -3, -3
1491432159840,-3, 1, -1, 0, -1, -1, 0, -1
1491432159856,3, 0, -1, -1, -1, 0, 2, -1
1491432159861,-3, 0, 1, 1, 0, 1, -1, -1
1491432159870,1, 1, 4, 0, -2, 0, -2, 0
1491432159884,2, 2, 0, 1, -3, -2, 0, -2
1491432159892,1, -2, -4, -1, 1, 0, -1, -1
1491432159899,0, -1, 0, -4, 0, -2, -2, -3
1491432159914,1, 3, 1, 0, 0, 3, 2, -2
1491432159921,-3, 2, 0, 0, 0, -1, -1, -1
1491432159929,-5, -4, -2, -2, -3, -3, -2, -3
1491432159944,3, 0, 1, -1, 2, 1, 0, 4
1491432159952,1, 1, -1, 0, 0, -2, -3, 0
1491432159959,-1, -6, -3, -2, -1, -1, -1, -5
1491432159974,2, 0, -2, 0, 2, 1, 0, 3
1491432159981,-1, -3, -2, 0, -2, -1, 2, 0
1491432159989,-3, -3, 0, -2, -3, -2, 0, -1
1491432160004,-1, -1, -3, -2, 1, 0, -2, -3
1491432160012,0, -1, -1, 0, 0, -1, 0, 1
1491432160019,0, 1, 1, 1, -1, -3, -3, -3
1491432160036,-4, -3, -4, -1, -1, 1, -3, -2
1491432160041,-1, 0, 0, 2, 0, 2, -2, 2
1491432160050,2, 2, 3, -2, 1, -1, 3, 0
1491432160064,2, 2, -3, -1, -1, -1, -1, 0
1491432160073,-2, 0, -3, -1, 0, -2, 1, 2
1491432160079,-2, 2, 1, -4, -2, -1, -2, -7
1491432160095,0, -3, -3, 0, -1, -1, 0, 0
1491432160101,0, 1, -3, 0, 0, 0, 0, 1
1491432160115,-1, 1, 1, -2, -1, -2, -1, -3
1491432160124,0, -4, 0, -1, -1, -2, -1, 2
1491432160132,0, -3, 2, 0, -1, 2, 1, 0
1491432160139,2, 0, -1, -1, -2, -2, -2, -1
1491432160155,-1, 0, -4, 0, -3, -3, 0, -4
1491432160161,-4, -4, -1, 1, -2, -2, 0, -4
1491432160162,-2, 3, 3, 0, 1, 0, 2, 3
1491432160170,-1, 1, 1, 0, -2, 0, -2, 0
1491432160184,1, -1, -1, 1, 1, -2, 0, -3
1491432160192,-2, 2, -2, -1, 0, -2, -3, -4
1491432160199,-3, -4, -3, -1, -1, 0, -1, 2
1491432160215,0, 1, -4, -2, 1, -2, 0, 1
1491432160221,-2, -2, 0, -2, 1, -2, -1, 0
1491432160230,1, 2, 0, -1, -1, -1, 0, 1
1491432160245,1, -4, 0, 1, -4, 0, -1, -5
1491432160252,1, -4, 1, -3, -2, -1, 0, 2
1491432160253,0, 2, 0, -2, 2, -2, 1, 1
1491432160259,-1, -1, 1, 2, 0, 0, 0, -2
1491432160275,0, -1, 1, 2, -3, -1, -2, -1
1491432160281,3, -2, -4, -2, 0, -1, 0, 1
1491432160289,1, 0, 1, 0, 1, -1, 0, 0
1491432160304,-4, 2, -3, -3, -1, -2, -1, -2
1491432160312,0, -1, 1, -1, -3, 2, -2, 1
1491432160319,-3, -3, -4, -2, -1, 0, -2, -4
1491432160334,-4, -2, 2, -1, -4, 1, 1, -2
1491432160341,1, 4, 1, -2, -2, 0, 0, 1
1491432160350,-2, -1, 0, -4, 1, -1, -2, -3
1491432160364,1, -2, 1, 1, 0, 2, 1, 0
1491432160372,-1, 0, -4, 2, -3, 0, -1, -3
1491432160379,-1, 0, -2, -1, 1, -1, -2, 1
1491432160395,-1, -5, -1, -2, -1, -2, -3, -2
1491432160401,0, 3, 0, -2, -1, -2, -1, 1
1491432160410,-2, 3, -2, 0, -1, -1, 1, 2
1491432160424,-1, -2, 1, 0, -1, -3, 1, -1
1491432160432,1, 2, -5, 1, 0, -1, 0, 1
1491432160439,0, -1, 0, 1, -4, 0, -2, -3
1491432160458,1, 0, -2, 0, 2, -1, -2, -1
1491432160461,-2, -3, -2, 0, -2, -1, 0, -1
1491432160470,-3, 0, 0, -2, -3, -2, -3, -2
1491432160484,-3, -2, 0, -1, -1, 0, -1, -3
1491432160492,0, 2, -1, -4, -1, -2, -1, -2
1491432160507,-1, -1, -3, -2, -3, 1, -1, 1
1491432160514,-2, -1, -2, -4, -2, 0, 0, -3
1491432160521,-2, -2, -2, -1, 1, -1, 0, 1
1491432160536,1, -3, -1, -2, -1, -2, 1, -1
1491432160544,0, -2, 2, 0, -1, -1, 0, 0
1491432160552,-3, 1, 3, -1, -2, -2, -1, -1
1491432160566,2, 1, -1, -1, -1, -1, -2, 2
1491432160575,0, -7, -3, -2, -2, -2, -4, -1
1491432160581,-2, 3, -4, -1, 1, 0, -2, 1
1491432160596,-2, 0, -2, -1, 0, -1, 0, 2
1491432160604,-1, 0, -3, -2, -1, 0, -2, -3
1491432160612,1, 1, -1, 1, 1, 2, -1, 2
1491432160626,-1, -1, 0, -1, -1, 0, 0, 0
1491432160635,-1, -3, -1, -1, 1, 0, -2, -1
1491432160641,1, -3, 2, 0, 0, -2, -1, 0
1491432160656,1, -5, -1, 1, -3, -2, 2, 1
1491432160664,0, 3, 0, 0, -1, 1, 1, 1
1491432160674,1, -1, 1, -2, 0, 0, 0, -1
1491432160686,0, 3, -4, 0, 2, -1, 1, -1
1491432160695,0, 0, -2, -3, -2, 2, 2, -3
1491432160701,-4, -2, 2, -3, -3, -2, -2, -3
1491432160716,-3, 5, -1, 0, 1, -2, -1, -3
1491432160724,1, -1, -3, 1, -2, -3, 1, -1
1491432160732,-1, -4, -4, -2, -2, 0, -3, 2
1491432160747,-1, 0, -2, 1, -2, 0, -1, 0
1491432160755,-2, 0, -6, -3, -1, -1, -1, -2
1491432160761,-3, 1, 1, -4, -1, -3, -2, -4
1491432160777,-2, 1, 0, 0, 1, 1, -1, 0
1491432160784,1, -5, 1, -2, -2, 0, 0, 1
1491432160792,0, 3, 2, -1, 1, 0, 0, 1
1491432160806,-1, 2, -3, 2, 0, -1, -4, -2
1491432160815,0, -6, 1, 0, -2, -3, -2, -2
1491432160821,-1, 2, -3, -3, 0, -1, -1, 1
1491432160836,0, -2, 0, 3, -1, -1, -2, -2
1491432160845,-1, -1, -1, 1, 0, -1, 2, -2
1491432160853,3, -1, -3, -3, -1, -2, -1, 1
1491432160854,1, 1, -1, 1, -2, 1, 0, 2
1491432160866,-1, -4, -4, -1, -2, 2, 1, -1
1491432160880,-9, 0, 0, -3, 0, 0, 1, -1
1491432160881,-3, 3, 2, -2, -1, 0, -1, 0
1491432160896,2, 1, -1, -3, -1, -2, -1, -3
1491432160904,-4, -2, 0, -3, 0, -1, -1, -1
1491432160912,-3, -4, -2, 19, 4, 2, 0, -1
1491432160927,-6, -2, -1, -2, 0, -4, 0, 1
1491432160935,7, 3, 2, 0, -2, -4, -5, -6
1491432160941,-5, -1, -3, -29, -6, -1, 0, -2
1491432160960,2, 0, -1, -16, 0, -1, 0, 0
1491432160964,7, 2, 0, -3, 1, 0, -2, -5
1491432160972,-5, 0, -1, -10, -4, 1, 1, 0
1491432160986,-10, 1, -2, 13, 2, -1, 0, -3
1491432160994,-4, 0, -2, -1, -5, -3, -1, -1
1491432161001,10, -4, 0, -3, -3, -1, -1, 5
1491432161023,1, 0, -1, -10, -5, -4, -2, 0
1491432161024,6, 0, -2, 14, 3, 2, -2, 0
1491432161039,8, -2, -2, 2, -5, -1, 1, 0
1491432161046,0, -2, 0, -13, -4, -2, -1, 0
1491432161054,0, -4, -3, -5, 4, 2, -2, 1
1491432161061,2, 0, 0, 4, -1, -2, -2, -1
1491432161076,3, -3, -3, 1, 1, -2, -2, -2
1491432161084,-2, -1, -1, 4, 0, -3, 1, -2
1491432161093,-4, 2, 0, 3, 3, 2, -2, -1
1491432161106,1, 0, -2, 2, -4, 1, 0, 0
1491432161114,-7, -1, -1, 1, -2, 1, -4, 0
1491432161121,-2, 0, 0, 1, 1, 1, 0, -1
1491432161136,-1, -4, -2, 2, 1, 0, 4, -1
1491432161144,4, 1, -1, -1, -1, -1, -1, -1
1491432161160,3, 4, -1, 1, 1, -2, -5, -3
1491432161167,-1, -4, -2, 4, -2, 0, -10, 0
1491432161175,-4, -2, -1, -3, -2, -2, 0, -1
1491432161181,-2, 3, 0, 2, -2, -3, 4, -1
1491432161197,2, -3, 1, 0, -6, -2, -1, 0
1491432161204,-7, -8, -2, -2, -1, -1, -2, -5
1491432161212,-2, 4, 1, 2, 1, 2, -2, -1
1491432161226,9, 3, -2, -3, -2, -3, 5, 1
1491432161235,16, -4, -2, 0, -1, 0, 1, 1
1491432161241,-3, 1, 0, 0, 4, 1, 0, 1
1491432161257,-3, -2, -4, -2, -3, -4, -3, -5
1491432161264,1, 0, 1, -1, 1, 2, 0, -1
1491432161272,-2, 12, 3, 4, 0, 1, -2, 1
1491432161286,-4, 10, 4, -1, -2, -1, -3, -4
1491432161294,2, -2, -4, -2, -5, -3, -16, 2
1491432161302,-5, -2, 0, -2, -6, -5, 6, 3
1491432161316,-7, -6, -4, -2, -3, -3, 2, -1
1491432161324,-6, -1, -1, -1, 1, -2, -1, -1
1491432161332,-6, -2, -5, 0, 3, 1, 5, -3
1491432161347,7, -7, -4, -2, -3, -1, 1, 3
1491432161355,-3, -1, 2, 0, -2, -2, 1, -4
1491432161361,-1, 1, 1, 1, 3, 2, -1, -1
1491432161379,-3, 2, -1, 2, 1, 0, 4, 0
1491432161384,-2, 3, -2, 1, 2, -1, -4, -1
1491432161393,-4, -1, 5, -2, 1, 0, 0, 0
1491432161406,0, 1, -2, 0, 2, 3, -4, 1
1491432161416,8, -2, 0, -3, -5, -3, -2, 4
1491432161421,8, -4, -3, 0, 1, -1, 1, -2
1491432161436,-6, -2, -1, -3, -2, -3, -1, 1
1491432161444,-5, -9, -5, -1, -2, -1, -3, -2
1491432161459,-2, 7, 2, 0, 2, 0, -3, -4
1491432161466,-5, -3, -1, -2, -1, -2, -6, -7
1491432161475,9, -3, -4, -3, 2, 1, -2, 2
1491432161489,-1, -1, -3, 0, -1, 1, 2, -1
1491432161497,-1, 1, 0, 0, -3, -3, 2, 2
1491432161504,3, 3, -1, -2, 1, 1, 8, 2
1491432161519,-3, -5, -2, -1, -6, -4, 4, -5
1491432161526,-7, -4, -1, -2, 0, -2, -6, -9
1491432161534,-1, -2, -1, 3, 5, 3, -6, 0
1491432161549,1, 5, 4, -2, 1, 0, -2, 5
1491432161557,-2, 2, -4, -2, 7, 5, 5, -3
1491432161564,0, 0, -1, 0, 3, -1, -28, -3
1491432161579,-6, 4, 2, 2, 2, 1, 2, 3
1491432161587,-4, 2, 0, -3, -6, -4, 3, 0
1491432161595,-4, 0, -2, 1, 3, 0, -1, 1
1491432161596,4, -1, -1, -4, -4, 0, 0, -2
1491432161609,-1, -1, -1, -1, -7, -3, 4, -1
1491432161618,2, -1, -3, -1, 0, -2, -17, -5
1491432161624,0, 0, 0, 2, 0, -2, 9, 4
1491432161639,-5, 4, -5, 0, 2, 2, 18, 7
1491432161646,9, 4, 2, -1, -2, 0, 4, -2
1491432161654,0, -2, 5, -7, -7, -2, 7, -11
1491432161668,-5, 2, 0, 9, 2, 0, 9, -1
1491432161677,6, 0, -2, 4, 1, -3, -9, 1
1491432161684,1, -2, -4, -2, -2, -3, -3, 3
1491432161699,-4, -1, 0, -9, -7, -4, 6, 1
1491432161706,7, 0, -2, -8, -4, -2, -33, -4
1491432161714,3, 1, -2, -2, 2, 3, 5, -1
1491432161728,-2, 1, 3, -4, 0, -1, 10, 3
1491432161736,-3, -2, -1, -5, 0, -2, -12, 1
1491432161744,-2, 0, -1, 2, -1, 1, -28, -3
1491432161759,-1, -1, -2, 6, 3, 3, -1, 6
1491432161766,-3, 1, -1, 3, 0, -1, -5, -5
1491432161767,-9, 1, -3, -8, -9, -7, 10, 4
1491432161782,-5, -3, -1, -3, 0, -5, 1, -4
1491432161788,8, -3, -2, -5, -3, 0, 21, 2
1491432161797,-11, -2, -3, -6, -3, -1, 3, -4
1491432161805,-3, 1, 1, 21, 5, 2, -2, 1
1491432161819,1, 0, 4, -1, -1, 2, 1, 1
1491432161826,-4, -2, -1, -4, -6, -4, 7, -1
1491432161836,-6, -1, 1, 7, 8, 3, -10, -1
1491432161848,6, -1, -2, -4, 2, 2, 8, 2
1491432161856,1, 2, 0, 4, -8, -7, 3, -2
1491432161864,-8, -3, -2, 3, 7, 4, -8, -6
1491432161879,2, -2, 2, -1, 1, 2, 16, 8
1491432161886,4, -3, 2, 6, 3, 4, -45, -8
1491432161887,-4, -6, -2, -1, -9, -9, -2, -11
1491432161895,6, -2, -3, -9, -3, -1, -5, -3
1491432161908,3, 6, 0, -8, 6, 9, -3, 4
1491432161916,9, 0, -3, -13, -5, -3, 2, 3
1491432161924,-6, 1, -2, -7, -4, -5, 2, -13
1491432161939,4, 0, -3, 1, -6, -4, -22, -9
1491432161946,-3, 3, 0, -1, -4, 1, 35, 1
1491432161947,-1, -4, 1, 4, 4, 0, -15, 7
1491432161955,3, 0, -1, 3, -4, -3, 1, -3
1491432161968,0, -2, -6, 2, 0, 0, -11, 2
1491432161976,2, 2, -2, 1, 1, -1, -8, -3
1491432161984,-8, 1, 2, 1, 2, -1, 8, 1
1491432161999,9, -1, 0, 1, -5, -3, -16, -1
1491432162006,4, -8, -2, -2, -2, 3, 17, 17
1491432162016,-13, -6, -1, 3, 0, -1, 18, -1
1491432162029,3, -3, -2, -7, -3, -2, 1, 3
1491432162037,-24, 4, 1, -3, -5, -3, 4, 4
1491432162044,-5, 3, 1, 1, 2, 5, 0, -18
1491432162059,9, 2, -1, 2, -1, -1, -7, 3
1491432162066,33, 3, -1, -3, -3, -4, 2, 2
1491432162074,11, -4, -3, -1, 4, 3, -11, 3
1491432162088,-16, 2, -5, -1, 2, 4, 22, -3
1491432162089,6, 3, -1, -2, -3, -3, -20, -2
1491432162096,0, -4, 2, 2, 5, 5, 2, -2
1491432162104,-15, 0, 2, -7, -7, -2, 4, 5
1491432162119,16, 11, 3, 9, -3, -2, 12, 1
1491432162126,-6, 0, 0, 3, -4, -3, 2, -4
1491432162134,-9, -4, -3, -5, -2, 0, 3, -13
1491432162148,-1, -1, -4, -7, 0, -1, 2, 0
1491432162157,-12, 2, -5, -5, 0, 1, 17, -11
1491432162164,-1, -3, -1, -4, -5, 2, 7, 18
1491432162179,-8, 6, 2, -5, -2, -2, -1, -4
1491432162186,0, -1, -1, -1, 3, 3, 13, 1
1491432162194,8, -6, -2, 1, -2, 0, -13, 3
1491432162208,4, 1, 0, 0, 3, -1, -3, -15
1491432162222,-8, -9, -1, -5, 1, -2, -10, -1
1491432162225,6, 0, 1, 3, 4, 7, -10, -4
1491432162239,-11, -2, -2, -6, -4, -9, -36, -16
1491432162246,-24, -1, 0, 1, 5, -3, -13, -4
1491432162255,4, 5, -1, 7, 2, 2, 19, 8
1491432162268,4, 7, 3, 5, 2, 0, 11, 2
1491432162276,-1, -9, -1, -7, -4, -4, -6, 16
1491432162284,3, 0, 0, 4, -1, 0, 3, -5
1491432162301,-11, -1, -1, 2, 1, -2, -21, -5
1491432162306,-8, -5, -3, 19, 6, -4, -28, -16
1491432162322,5, 0, -1, -39, -16, -2, -6, 4
1491432162328,5, -3, -4, -25, 2, -3, -10, 3
1491432162336,5, 0, 3, 4, 2, -1, 14, 2
1491432162344,-3, 4, 1, -4, -8, -3, 23, 3
1491432162359,-2, -3, 1, 8, 6, 1, 12, 4
1491432162366,-2, -1, 0, 36, 3, -2, 12, -2
1491432162381,4, 0, 2, 7, 5, 3, 2, -5
1491432162389,3, -7, -6, -16, -10, -1, 0, 0
1491432162396,8, 0, -1, 14, 5, 0, -20, -3
1491432162411,-7, -3, -2, -27, -5, -2, -75, 1
1491432162419,-5, -3, 0, -3, 7, 6, 21, 5
1491432162427,-2, -4, -1, 0, 0, -4, 7, 2
1491432162441,-1, 0, -2, 6, 2, 2, -26, -4
1491432162449,-7, -5, 2, 6, 3, 3, 18, -2
1491432162457,0, -3, -3, -1, -6, -6, 7, -5
1491432162475,-1, 6, 3, 0, -2, -1, 7, -4
1491432162479,3, -1, -4, 3, -2, -2, -20, 2
1491432162486,0, -1, -3, 0, -3, -6, -8, -14
1491432162501,-27, -3, -2, 3, -4, -2, 18, -6
1491432162510,10, 2, 3, -3, 2, 2, 13, 30
1491432162517,1, 10, 0, -3, -1, -3, -6, 0
1491432162531,2, 2, -1, 3, 3, 1, 15, -8
1491432162539,1, -2, -2, -4, 0, 1, 4, 37
1491432162546,-5, 7, -2, 1, -1, 0, -22, -18
1491432162561,8, -3, 0, -2, -3, 0, 11, -13
1491432162569,-1, -8, -4, 10, 2, -2, 4, -18
1491432162577,1, -6, 1, 0, 7, 4, -11, 3
1491432162591,-6, 0, 0, -2, -5, -4, 21, 4
1491432162599,-8, 0, -2, 0, 3, 3, 37, -14
1491432162606,-9, -1, 0, -9, -3, 1, 0, 3
1491432162622,-9, -5, -4, -9, -4, -2, -3, 1
1491432162629,-2, 5, -3, -2, -3, -3, -1, -4
1491432162638,1, -1, 0, 1, 0, -1, -1, -7
1491432162651,4, -6, 1, -2, -1, -3, -22, 6
1491432162659,7, 2, 1, 6, 2, -2, -23, 8
1491432162666,2, -1, -1, 2, 3, 4, 5, 9
1491432162681,-12, 15, 2, 5, 7, -11, -43, -38
1491432162689,1, 2, -1, 1, 21, 6, 8, -4
1491432162697,19, 0, -3, -8, -5, 1, 26, 15
1491432162711,5, 1, -2, -2, -3, -2, 20, -5
1491432162720,-14, 2, 0, 2, -4, -6, 4, -3
1491432162726,0, -7, -2, -6, -8, 1, 17, 5
1491432162741,-5, -1, 0, 0, -4, 1, 1, 0
1491432162749,-1, 7, 4, 1, -1, -1, -2, -1
1491432162757,9, -2, -4, 0, 0, 4, 8, 4
1491432162771,8, -3, -2, 3, -1, 0, -41, 0
1491432162779,5, -6, -3, -3, 0, -10, -28, 3
1491432162786,0, -4, -5, 14, 0, 1, -39, -2
1491432162801,-2, 5, 0, -10, -3, 0, 6, -5
1491432162802,8, 1, 1, 9, 2, 4, 11, 4
1491432162810,-2, 2, 3, -2, -2, -4, 12, 0
1491432162824,14, 4, 0, -4, -4, -2, 8, -4
1491432162830,1, -5, -2, 0, -4, -1, 3, -7
1491432162841,-6, 0, 0, -6, -7, 0, 2, 10
1491432162846,-4, 1, -2, -5, -4, -2, 11, 2
1491432162861,-7, 1, 2, -6, 4, -1, 13, -3
1491432162869,8, 12, -2, -2, -5, -7, -6, -9
1491432162877,-2, -2, -2, -4, -3, 3, 10, 0
1491432162890,-7, -10, -3, -4, -3, 0, -8, 4
1491432162891,-4, 1, 2, -5, -6, 0, 12, -7
1491432162899,6, 3, 1, -2, -6, -3, -10, 3
1491432162900,-2, 1, 0, 5, 4, 6, 0, -6
1491432162906,-4, -3, 1, 3, 0, -4, -18, 0
1491432162929,-4, 0, -3, -2, -4, -1, 0, -2
1491432162930,-21, -10, -3, -8, -1, -1, -8, -1
1491432162939,-3, -2, -3, -4, -2, -6, -25, -19
1491432162950,-3, 2, -2, -4, -3, 1, -2, 2
1491432162951,8, 1, -3, 0, 0, 4, 13, 13
1491432162959,-2, 3, 0, 2, 0, 2, 22, 3
1491432162966,-2, 0, -3, -3, -5, -3, -2, -11
1491432162981,5, -2, 1, 5, -3, 1, 6, 8
1491432162989,-4, 0, -2, -7, -1, 0, 9, 4
1491432162997,-5, 1, 3, -6, 1, -4, 4, 0
1491432163010,-4, 0, 1, 6, 2, -3, -10, -5
1491432163019,5, -8, -1, 6, 4, -6, -2, 1
1491432163027,18, 4, -1, -2, 10, -1, 12, 7
1491432163041,1, 2, -1, 3, 7, -1, 1, 6
1491432163049,-9, -2, 0, -8, -5, 4, -10, 5
1491432163057,-14, -3, -1, -11, -13, 5, -11, -5
1491432163071,-3, 4, 0, -2, -10, 3, 6, 7
1491432163079,2, -3, -4, -1, -5, -6, -1, -8
1491432163086,5, 0, 0, -4, -2, -6, -15, -14
1491432163101,0, 2, 0, -4, 2, 2, 3, -1
1491432163109,-4, -5, -1, -2, -4, -2, 7, -9
1491432163117,2, -9, -1, -3, 0, 0, -5, -2
1491432163130,7, 2, 0, 11, 6, 0, 23, -1
1491432163131,2, 0, -3, -10, -1, -7, 8, 7
1491432163139,-3, 1, -1, 2, 5, -2, -4, 1
1491432163148,-6, -1, -2, 3, -1, -2, -6, 12
1491432163161,1, 5, 0, 4, -1, 1, -8, 6
1491432163169,1, 6, -1, 0, 0, 1, 4, -7
1491432163177,9, 9, 3, -7, -9, -5, -30, 1
1491432163191,3, -4, 1, 21, 10, 3, 12, -2
1491432163199,1, 7, -2, 10, 6, -1, -1, -6
1491432163206,6, 0, 4, -4, 0, 1, 2, 9
1491432163222,-5, -5, -6, -1, -5, -3, -5, -11
1491432163230,-9, -3, -3, -4, 0, 1, 11, 2
1491432163237,-3, -3, 1, 6, 3, 1, 30, 65
1491432163251,3, -2, -1, -1, -1, -2, -28, -13
1491432163259,2, 2, -3, -2, 0, 0, 9, -10
1491432163267,-3, 0, -3, -5, -8, -2, 5, -33
1491432163282,-4, -2, 2, 10, 8, 2, -1, -50
1491432163289,5, 0, -1, -9, -6, -4, -9, -38
1491432163304,-4, -8, 0, -3, -5, 2, -4, -1
1491432163311,5, -4, -1, 5, 1, 1, 13, 25
1491432163319,2, 3, -1, -1, 1, 0, -1, -1
1491432163333,-3, 1, -1, 1, 0, 3, 13, 9
1491432163341,-5, -4, -1, -5, -5, -8, -3, -11
1491432163349,-4, 2, -2, -2, 1, 0, -12, 16
1491432163364,-2, -3, -1, -8, -4, 3, 8, 6
1491432163371,0, -5, -1, 2, 2, -2, -3, 9
1491432163379,-1, -1, 1, 9, -1, 1, -13, 0
1491432163395,5, -1, 5, 9, 5, 1, 1, -4
1491432163404,4, 0, -1, -8, -5, -4, 7, 12
1491432163409,1, 0, -3, 1, 0, -3, -18, 1
1491432163424,4, 0, -3, -1, 1, -2, 4, 0
1491432163430,-6, -6, 0, -10, -4, 0, 7, 3
1491432163439,-6, 3, -2, -10, -3, -1, -16, -7
1491432163453,0, -7, -2, 3, 1, -4, -3, -1
1491432163461,1, 0, -3, 4, 5, -4, 4, -9
1491432163469,0, 3, -1, -8, -3, -2, 5, -17
1491432163484,0, 1, 1, -3, 1, -2, -1, -26
1491432163490,1, -1, 1, -4, -2, 1, -5, -7
1491432163491,-5, 1, -3, -2, -4, -1, -2, -3
1491432163499,-5, 1, 0, 2, -1, 0, -10, 22
1491432163513,1, 4, 2, 0, -5, 0, -3, 78
1491432163521,-5, 1, -4, -7, -1, 2, 6, 113
1491432163529,-2, -1, -2, 9, 3, 2, 12, -27
1491432163544,-6, -2, 2, -1, -3, 2, 24, -89
1491432163551,-3, -3, 0, -3, 1, -4, -1, -36
1491432163559,4, -2, 2, 1, -3, -1, -15, -25
1491432163573,-3, -2, -5, -5, -1, 1, -3, -17
1491432163581,-2, 4, -3, -4, -2, -7, -9, -5
1491432163595,7, 1, -4, 2, 2, 1, 6, 4
1491432163596,-2, 2, 0, -3, -2, -5, -11, -1
1491432163604,2, -2, -5, -2, -2, 0, -1, 3
1491432163618,3, 5, 0, 5, 0, 0, -1, 17
1491432163620,5, 1, -3, 0, -3, -2, -1, 3
1491432163633,-5, 0, 2, -3, -1, 5, 7, 1
1491432163642,2, 1, 1, -2, -2, -1, 4, -4
1491432163649,-1, 9, 2, 1, -1, -1, 7, -4
1491432163664,-1, -6, 1, -3, 5, 2, 5, 2
1491432163671,-9, -7, 0, -1, -5, -5, 3, 1
1491432163681,-3, -7, -1, -4, -5, -5, -9, -6
1491432163694,4, -3, 1, -4, 1, 2, -5, -1
1491432163701,1, -4, -3, 0, -1, -4, -7, 0
1491432163709,6, -3, -4, -3, -2, -1, -7, -7
1491432163724,2, -1, 4, 4, 1, 0, -15, 3
1491432163730,-15, 2, -4, 1, -1, -2, 2, 13
1491432163739,-3, -3, -2, -2, -3, 1, 7, -2
1491432163753,-7, -2, 2, -2, 0, 2, -7, 0
1491432163761,-1, 3, -2, -2, -1, -1, 7, -6
1491432163769,3, -1, 0, 2, 4, -3, 5, -2
1491432163784,0, -1, -3, -2, 0, 0, -9, -12
1491432163790,4, 0, 3, 2, 2, 0, -18, -10
1491432163798,-2, 5, -1, -8, 0, -3, -1, -19
1491432163799,1, 0, -2, 7, 0, 4, 9, -24
1491432163813,7, 0, -5, -7, -2, 1, 11, -23
1491432163822,-2, 2, -1, -7, -1, 0, 6, -12
1491432163829,6, 3, 2, 5, 6, -2, -3, 16
1491432163844,1, -3, -2, -4, -4, -1, 4, 67
1491432163853,-1, 5, -2, 0, 0, -2, -5, -42
1491432163858,-11, 2, 0, 0, -4, 0, 16, -16
1491432163859,-9, -2, -1, 0, -1, 2, 25, 4
1491432163873,-3, -3, 1, -4, -4, -4, 10, 98
1491432163881,10, 5, -2, -2, 1, -3, -25, -4
1491432163889,4, -1, -2, -2, -1, -1, 1, 1
1491432163904,-4, -1, 3, 0, -3, 0, 6, -28
1491432163910,2, -7, -3, -5, -1, -1, -29, -34
1491432163911,-4, 3, -3, 3, 1, 4, 4, -97
1491432163918,-1, -1, -2, -3, -3, -3, -9, -12
1491432163919,2, 0, 0, 2, 1, 1, -7, 48
1491432163933,-1, 1, 1, -1, -1, 2, 5, 36
1491432163941,0, -1, 0, 1, 4, 0, -1, -14
1491432163949,-6, -1, -4, -1, 2, -1, -5, -103
1491432163963,-2, 2, 2, -5, -3, 4, -6, -121
1491432163964,32, 0, -2, -1, -6, 0, -21, -16
1491432163970,55, -6, -5, -1, -6, 2, 18, 127
1491432163982,-29, 2, -5, 1, 1, 0, 25, -48
1491432163993,-48, -6, -1, 0, -2, -5, 3, 74
1491432164002,12, 2, 3, 0, 3, 1, 2, -14
1491432164009,0, 7, 2, 12, 5, -1, -13, -62
1491432164024,-16, -2, 2, -3, -3, -4, -26, 3
1491432164030,32, 2, 0, -7, -6, 0, 14, 34
1491432164039,37, -4, -1, -9, 1, 2, 21, 31
1491432164053,16, 5, -1, -2, 4, 0, -27, -5
1491432164062,11, -4, -1, 5, -1, 3, 29, 5
1491432164069,-10, 0, 2, -3, -4, -2, 26, -27
1491432164083,12, 2, 1, 2, 0, -1, 16, 32
1491432164084,-4, 2, -1, 6, 1, -4, 17, 32
1491432164090,28, -5, -5, -4, -4, 4, 15, -68
1491432164099,-14, 7, 4, -6, 0, -3, -12, -79
1491432164113,-7, -2, 0, -1, -6, -1, -12, -9
1491432164121,10, 2, -3, -10, 0, -3, 4, -11
1491432164129,2, -9, -2, 14, 4, 1, -24, 21
1491432164144,30, 0, 3, -1, -1, 0, 19, 18
1491432164150,17, 5, 1, -9, 0, 0, 3, 56
1491432164151,-33, -8, -3, -9, 2, 0, 35, 57
1491432164159,-48, -6, -8, 3, -5, -3, -50, 26
1491432164173,-58, 3, -1, -1, 0, -6, -23, -28
1491432164181,-41, -8, -3, 14, -4, 4, -36, 17
1491432164190,40, 3, 4, -9, 0, -3, -16, 60
1491432164204,-40, -1, 1, -6, -1, -3, -26, -74
1491432164210,-28, -1, -1, 2, -5, -3, -16, -53
1491432164219,24, 4, 2, 1, 4, -3, 23, 0
1491432164234,-50, -10, -4, -3, 3, -2, 3, -14
1491432164242,-29, -2, -3, -4, 3, 5, 3, 9
1491432164257,-9, 1, -2, -5, -5, 0, -4, 27
1491432164263,1, -1, -2, -4, -3, 0, -5, -4
1491432164264,6, -7, -1, 3, 0, 2, 1, 46
1491432164285,18, 0, 1, -8, -7, -4, 10, 31
1491432164286,18, 0, 1, -1, -3, 2, 2, -9
1491432164287,8, -2, 1, -8, -4, 0, -4, 4
1491432164294,14, -2, -4, -2, -3, -1, 4, -20
1491432164301,11, 11, 4, 3, 3, -3, -5, -5
1491432164317,13, -1, 2, -3, 1, 1, 3, -7
1491432164324,10, 0, 1, 0, -3, -6, -3, -4
1491432164332,6, 2, -4, -1, -1, -5, -25, -1
1491432164346,9, -3, -5, 0, -1, 1, 0, 17
1491432164355,7, 1, -1, 1, 0, -1, 2, 14
1491432164361,-3, -1, 0, 1, -2, -2, 5, -7
1491432164376,6, 0, 0, 4, 8, 3, -1, -4
1491432164377,16, 5, -1, -3, -7, -2, 1, -21
1491432164383,6, 3, -3, 0, -2, 3, -8, 5
1491432164392,-5, 1, 0, -5, 0, 1, 15, -10
1491432164407,-1, -5, -3, -1, -1, -1, 13, 6
1491432164414,-2, 3, -2, -3, -1, 2, -4, 3
1491432164421,9, 3, 1, 1, -2, -1, 3, 6
1491432164437,-1, -3, 0, 4, 2, 0, 11, -5
1491432164444,-15, 6, 2, -2, 0, -1, -4, -7
1491432164452,0, -6, 2, 2, 0, -4, -13, -8
1491432164466,-1, -3, -3, -2, 0, -3, 1, -15
1491432164474,1, 4, 3, 2, 1, -3, -23, 0
1491432164481,6, 3, 1, -1, -2, 4, 7, -5
1491432164497,-3, -10, -2, -1, 2, 2, 6, -12
1491432164503,1, 11, 4, -5, 2, -1, -5, 9
1491432164519,-1, 0, -1, 2, 0, 4, 4, 6
1491432164526,-1, -4, -1, -4, 0, -2, 5, -4
1491432164536,4, 9, -2, -1, -3, 0, 8, 3
1491432164541,0, -3, 1, 0, 3, 0, -10, 7
1491432164557,-1, 2, -2, 0, 1, -1, 4, 6
1491432164564,1, -3, 0, 3, 3, -3, -14, 0
1491432164579,1, -3, 0, 0, -2, -4, 1, -8
1491432164586,-8, -7, 1, -1, -4, 1, -1, 6
1491432164595,-4, 0, -2, -2, -2, -3, -2, 23
1491432164601,0, -2, -2, 1, -2, -1, 7, 1
1491432164618,-4, 1, -1, -2, -1, -2, 7, -9
1491432164626,0, -8, 0, 0, 0, 0, 8, -1
1491432164639,1, 1, 0, -1, -4, -1, -5, 3
1491432164646,4, 1, -2, -2, -2, 1, 10, 2
1491432164656,-8, -6, -2, -1, 1, 2, 4, -1
1491432164662,-2, 1, -2, -2, -4, -5, -12, 1
1491432164678,-2, -3, -1, -2, 0, -1, -4, -3
1491432164683,4, 2, -4, -3, -1, -1, -5, -7
1491432164701,3, -5, -3, -5, -1, -2, 3, -7
1491432164706,2, 1, -1, 0, -4, -3, 2, -7
1491432164714,3, 4, 2, 3, 3, 1, -4, -8
1491432164721,-3, 3, -2, -3, -1, 2, 9, 2
1491432164737,2, -2, -2, 0, -2, -3, -16, 7
1491432164744,2, -2, 0, 5, 1, -1, 3, 1
1491432164760,-1, -3, -2, -3, -1, 0, 2, 0
1491432164766,-3, -2, 0, -2, -2, -3, -13, 0
1491432164775,1, 5, 1, -2, -3, -2, 0, 1
1491432164781,-3, 2, -1, -6, -2, 0, 3, 1
1491432164797,-4, -3, 0, -3, -1, -1, 1, -5
1491432164804,-1, 2, 0, 5, 3, 2, 9, -2
1491432164819,8, -2, -5, 6, -2, -1, 3, -3
1491432164826,2, -1, 0, 4, -4, -1, 0, 0
1491432164834,2, 2, 0, -33, -15, 0, 1, 2
1491432164841,0, 0, -3, -19, -3, -1, -4, -7
1491432164856,-12, -4, 0, -5, -9, -5, -7, -7
1491432164864,-5, -2, 0, 3, 3, 1, -1, 2
1491432164879,5, 0, 0, 29, 4, 3, 0, 2
1491432164886,1, -2, 1, 9, 1, -1, -1, 0
1491432164894,-4, 0, -4, -4, -2, 2, -3, 3
1491432164901,3, 2, -1, 4, 2, -2, -3, -2
1491432164917,4, 3, -3, -1, 4, 3, 1, -4
1491432164923,-2, -7, -2, -2, -6, -3, -1, -2
1491432164924,1, 2, 2, -13, -4, -1, 0, 0
1491432164940,-1, -2, 1, 11, 6, -2, 0, 2
1491432164946,-8, -1, -4, 1, -4, -4, -2, -1
1491432164954,0, -12, 0, -4, -2, 3, 6, 3
1491432164961,-1, -2, -1, 10, 1, 1, 0, 3
1491432164977,-6, -8, -6, -4, -3, -3, -2, -1
1491432164984,-3, -7, -1, 1, 0, 1, 3, -3
1491432165000,-5, 1, 2, 1, 1, -2, 0, -7
1491432165006,-2, 4, 0, 6, 4, -3, -2, -8
1491432165014,1, 1, 0, 1, 0, 0, 2, -2
1491432165021,1, 11, 0, -8, -5, 0, -3, -4
1491432165037,3, 10, -1, 6, 1, -4, 2, -2
1491432165044,-4, -4, 0, 0, 3, 3, 15, 9
1491432165059,-1, 2, -1, -4, -3, -3, 4, -2
1491432165066,8, -1, 0, -4, -4, -4, -9, -4
1491432165074,-2, -4, -2, -5, -3, 2, -23, -1
1491432165081,-8, -8, -6, -4, -6, 0, -6, 3
1491432165098,3, -1, -3, 4, 0, 2, 3, -2
1491432165104,-1, -4, -2, -8, -2, -1, 8, 1
1491432165119,-2, 6, 0, 13, 5, -3, 2, 1
1491432165126,6, 1, -2, -6, -5, 0, -14, -3
1491432165134,3, 1, -2, -12, -5, 0, -3, -1
1491432165141,1, 0, 1, 5, 4, -1, -1, 1
1491432165157,-1, 2, -2, -2, 1, 0, -1, 4
1491432165166,0, 1, -3, 1, -1, 0, 0, -1
1491432165179,0, 4, 2, -1, 3, -1, 3, -3
1491432165186,1, 0, -3, 3, -1, -5, -3, -6
1491432165196,-11, -6, -4, -1, 0, -1, 2, -5
1491432165209,-6, 0, -1, -1, 0, 2, 0, -2
1491432165217,4, -5, 0, -1, 0, -4, 2, -1
1491432165224,3, 0, -1, 10, 3, -2, 1, -1
1491432165240,10, -2, 0, -6, 0, -3, 0, 4
1491432165246,0, 1, 2, -2, -1, -1, 1, -2
1491432165254,-11, -7, -4, 1, 1, 3, -4, -1
1491432165269,10, -3, -1, 17, 1, 0, 1, 3
1491432165278,-3, -2, -1, -12, -8, -3, -2, -3
1491432165284,-19, -4, -5, -24, -1, 1, 0, -5
1491432165299,-4, 2, 1, 12, 3, 2, 7, 2
1491432165306,-7, -1, 3, -5, -2, 0, 2, 3
1491432165314,-4, -5, -4, -10, -1, 0, -3, 0
1491432165330,-5, 0, -3, -2, -3, -3, -7, -5
1491432165338,4, -3, -2, 3, 0, -2, 15, -4
1491432165344,5, -3, 0, -1, -1, 1, 32, -2
1491432165358,-3, 5, 0, 0, -3, -2, 16, -3
1491432165359,-4, -2, -2, -4, -2, -2, 1, -1
1491432165366,0, 3, -1, -2, 0, 0, -3, 1
1491432165375,1, 2, -4, -2, 1, -1, -10, 4
1491432165388,-3, 0, -2, -10, -2, -1, -22, -7
1491432165389,3, 1, 1, 17, -1, -1, -17, 2
1491432165397,4, 3, -1, -5, -3, -3, -13, -2
1491432165404,5, 3, -3, -4, -5, -1, -16, -2
1491432165419,-2, 3, 0, 0, 1, 2, -9, 1
1491432165426,4, -5, 2, 4, 1, 0, -7, 2
1491432165441,1, -3, 3, -2, 0, 1, 1, 0
1491432165449,3, 5, 0, -4, -2, -1, 2, 0
1491432165456,-8, -4, -3, -8, -3, -3, 4, -1
1491432165457,6, 3, 1, 3, -1, 1, 2, -6
1491432165464,7, -2, -5, -14, -5, -2, 3, -5
1491432165479,-1, 2, 1, -2, -5, -4, 6, 0
1491432165487,-5, 1, 1, 3, 0, -1, 7, -1
1491432165494,2, 0, 0, 32, 1, 0, 1, -2
1491432165509,-9, -3, -1, -4, 3, 1, -1, -1
1491432165518,-9, 6, 2, -9, 2, 1, -1, -1
1491432165523,-7, -8, -1, 3, 2, -2, -3, -5
1491432165539,1, -3, -2, -2, -1, 0, -1, -2
1491432165546,8, -2, -2, -5, -2, 1, -1, 4
1491432165554,-2, -2, -1, -5, -1, -1, 1, 2
1491432165569,-1, -3, -3, 1, 1, -1, -3, -4
1491432165576,-7, -3, 1, 0, 2, 1, 4, 2
1491432165577,12, -1, -1, -1, 0, -1, -3, 5
1491432165584,-10, -1, -2, 5, 0, 2, 0, -1
1491432165598,2, -4, 0, -9, -4, -2, -2, 0
1491432165599,-3, -1, -1, 13, 1, 0, 0, 0
1491432165606,-3, 0, -2, -10, -5, -2, -1, -1
1491432165614,0, -7, -3, -10, -3, -2, -1, 0
1491432165629,9, -1, 5, 1, 0, -1, 2, 3
1491432165637,-2, 7, 0, -1, -1, 0, 5, 2
1491432165644,4, 2, 0, -9, -1, -3, -1, -2
1491432165660,5, -1, 0, -11, 0, -3, -1, 1
1491432165666,-9, 0, -1, 2, -1, -1, 2, -3
1491432165675,-10, 0, 0, 1, -1, -1, -4, -4
1491432165689,-7, -3, -4, 1, 1, 0, -2, -3
1491432165699,-3, -2, 2, -10, -1, -1, -1, -3
1491432165704,1, 3, -1, 1, -2, -1, -3, -2
1491432165720,0, -5, -5, 2, -2, 0, -3, -3
1491432165726,-1, 4, -3, 2, -1, -2, 0, 0
1491432165736,-6, -3, -3, -7, 0, -1, -1, -1
1491432165750,1, 4, 1, -4, 1, 0, 1, 1
1491432165758,-2, 0, -6, -4, -1, 0, 1, 0
1491432165763,-1, -6, -2, -6, -2, 1, 2, -2
1491432165764,9, 6, -1, 1, -1, -4, -3, 3
1491432165778,5, -3, -1, 0, -2, -4, -2, -5
1491432165779,-5, 0, -1, 4, 0, -1, 0, -2
1491432165786,-18, -4, 1, -1, 2, 3, -1, -4
1491432165795,1, -2, 2, 2, 3, 1, 0, -5
1491432165808,5, 0, -2, -7, -4, 0, 2, 1
1491432165809,2, 1, 2, 5, 1, 0, 0, 1
1491432165817,-4, 3, 1, -6, -1, 2, 1, 0
1491432165825,-1, -4, -2, -9, -3, -3, 1, -3
1491432165842,1, -1, -1, 3, 1, 0, -5, 2
1491432165846,-5, 2, -2, 3, -1, 1, 1, -2
1491432165854,-13, 2, -2, 1, 0, 1, -2, -5
1491432165869,5, 3, -3, 0, 2, -1, -3, 2
1491432165877,-2, 1, 0, 2, -1, -1, -1, 0
1491432165884,7, -2, -4, -4, 0, -1, -2, 1
1491432165898,10, 3, 2, 4, 0, 1, 1, 2
1491432165907,3, -1, 1, 1, -3, 0, -1, -1
1491432165914,3, 1, 0, 1, -2, -3, 0, 1
1491432165930,4, -2, 1, 4, 0, 1, 2, 3
1491432165938,-4, -6, -1, 12, -1, -1, 3, -2
1491432165943,-5, -10, -4, -7, 1, -4, -1, -5
1491432165959,2, 3, -3, -8, -3, -2, -3, 1
1491432165966,-5, -8, 0, 8, -2, 0, 0, 0
1491432165974,-3, -4, -2, -13, -4, -4, 1, -2
1491432165989,-10, -1, 1, -11, -5, -4, -7, -3
1491432165997,3, 0, 2, -2, 1, 2, 1, -2
1491432166004,5, 4, 1, -4, 0, -2, 1, -1
1491432166018,-7, 1, -1, -5, 0, 1, -3, -1
1491432166026,0, -1, -3, -1, 0, 0, -1, 0
1491432166035,8, -3, -5, 1, -4, -3, -5, -2
1491432166049,0, -1, 1, -2, -1, 2, -2, 2
1491432166057,-1, -1, -1, -4, -1, 1, 3, 0
1491432166063,-3, -2, -7, 8, 2, -1, -4, -2
1491432166079,13, 3, 5, 38, 20, 3, -1, 3
1491432166086,-6, 3, 2, 2, 0, 0, -2, -1
1491432166101,-6, 3, -1, -7, -6, -2, -1, -1
1491432166109,1, 3, 0, -1, -4, -3, 0, -6
1491432166118,4, -2, -5, -5, -4, -4, 0, 2
1491432166131,14, 2, -1, -11, -4, 2, 5, 4
1491432166138,-4, -9, -1, -9, -2, -2, 4, -1
1491432166153,-2, -3, -5, -2, -3, -2, 0, -2
1491432166168,-4, 1, -1, -1, 2, 2, -2, 1
1491432166170,-1, -2, 0, 14, -3, -6, -4, -2
1491432166177,-3, -3, 0, -10, -6, -2, -10, -1
1491432166192,2, -2, -1, 1, -1, 0, -1, -4
1491432166193,-6, 1, -2, -8, -2, 1, 4, -2
1491432166198,6, -1, -1, 2, 0, 0, -5, 3
1491432166199,5, -2, -1, 3, -4, -4, 2, -1
1491432166206,1, -1, 0, -4, -1, 1, 2, -1
1491432166221,-4, 0, -3, -10, -2, -1, 4, -3
1491432166229,-19, -1, 1, 0, 2, 2, 7, -3
1491432166237,-2, -1, 1, 1, -6, -2, -6, -4
1491432166251,12, 1, -2, -3, 2, 0, 3, 4
1491432166259,-11, 1, -3, 1, -1, 0, -3, -7
1491432166266,-1, 4, -1, 0, 1, 2, -14, -5
1491432166281,15, -1, -1, -1, 0, 0, 4, 2
1491432166289,-7, 2, 1, 1, -2, -1, -5, -3
1491432166290,16, 1, -3, -2, -1, -4, -2, -2
1491432166297,-4, -4, 1, -3, 1, 1, -4, 1
1491432166310,6, -1, 2, -3, 1, -1, 5, 1
1491432166311,-4, 0, 1, 0, 1, -1, -2, -2
1491432166318,-3, 3, 0, 0, -3, -4, -12, -2
1491432166329,-9, -4, -3, 1, -3, 1, 0, 0
1491432166341,2, 1, -2, -1, -1, 0, 2, -3
1491432166348,-4, -8, 0, -3, -3, 0, -2, -3
1491432166357,2, 3, -3, 2, -3, -1, -6, 5
1491432166358,-10, -2, -3, 2, 1, 0, 3, -3
1491432166371,-1, -1, -1, 1, -2, -3, 1, -3
1491432166379,-6, 4, 0, 1, -2, -2, 4, 0
1491432166386,-8, 1, 1, -7, -1, 2, -2, -3
1491432166401,-3, -4, -2, 0, 0, -1, -5, 1
1491432166409,-5, 2, 0, 1, 1, -1, 1, 1
1491432166416,2, -5, -2, -4, -1, -1, 1, 0
1491432166431,6, 11, 0, 4, -1, 1, -3, 1
1491432166440,-4, 5, 2, -7, -4, 0, -5, -1
1491432166446,-8, -1, -1, -4, 3, -4, -3, 1
1491432166461,6, 3, 0, 14, 1, 0, 4, 1
1491432166469,5, 4, 2, 0, -4, -1, 4, 0
1491432166477,-1, 0, 1, -6, 0, 0, -1, -4
1491432166491,-5, -3, -2, -2, 0, -2, 2, -1
1491432166499,3, 2, -2, 7, 3, -1, 0, -1
1491432166506,1, 0, -2, -2, -1, -1, -9, -1
1491432166521,10, -2, -3, -3, -4, -3, 0, 1
1491432166529,7, -5, -2, 3, 2, -2, 1, 1
1491432166537,10, 4, 1, -5, -1, -3, -5, -4
1491432166551,2, -1, -3, 1, -1, -1, -3, 2
1491432166559,3, -4, -2, 7, 4, 2, 5, 2
1491432166566,5, -4, 0, -1, -2, 1, 0, -1
1491432166581,-5, 1, -1, -5, -1, -1, -2, -2
1491432166588,-8, -1, 2, -2, -2, -3, 2, -1
1491432166596,-7, 1, -3, -4, 1, -2, -7, -2
1491432166611,2, -4, 2, -2, -3, 1, 2, 2
1491432166619,-5, 5, 0, -2, -3, -2, 4, -1
1491432166626,-1, -1, -2, -2, 2, 1, 0, -2
1491432166641,-10, -2, -1, -2, 0, 2, 1, 0
1491432166648,5, -1, 1, -6, 0, -1, 4, -1
1491432166656,-2, 3, 3, -5, -2, -1, 2, -2
1491432166672,-5, -2, 0, 1, -2, 2, -3, -3
1491432166679,1, -4, 2, 2, 2, 0, -1, -1
1491432166686,5, -3, -2, -2, -2, -1, -2, 0
1491432166701,5, 10, 2, 1, 1, 1, 2, 1
1491432166708,-10, -3, -2, 0, -1, -2, -2, -2
1491432166709,-3, -2, -3, 1, 0, -3, 0, 0
1491432166716,0, -2, -1, -1, -2, 0, -3, 0
1491432166717,0, -5, -5, -4, -2, -2, -5, -3
1491432166731,1, -2, -4, -3, -1, -2, -2, -2
1491432166739,-21, -6, 0, -4, -2, -1, -3, -4
1491432166746,6, 2, 1, 0, 1, -1, -1, -2
1491432166761,0, -3, -2, 2, -1, -1, 0, -1
1491432166768,-9, 0, -2, -1, 0, -1, 1, -3
1491432166776,10, 0, -4, 3, 0, 1, -4, 0
1491432166791,-2, 0, 0, -1, -4, 0, -6, -1
1491432166800,-6, -1, -3, -1, 1, 0, -5, -1
1491432166806,-21, -2, -1, 1, 0, 0, -2, 1
1491432166821,4, -3, 0, -5, -3, -2, 7, -1
1491432166833,17, 0, -2, -6, -4, -2, -1, -3
1491432166836,3, -1, 0, 0, 1, 2, 1, -1
1491432166851,13, 9, 0, 0, 0, -1, -2, 4
1491432166859,3, 1, 0, 0, -1, 0, -3, 0
1491432166866,-11, -3, -1, 3, -1, 0, 2, -2
1491432166883,-8, -1, 0, -1, 0, 0, -1, -2
1491432166888,-3, 2, -1, -2, -4, 1, -4, 0
1491432166889,1, -2, -1, -1, -2, 2, -2, -2
1491432166904,-2, -1, -2, 1, 0, -5, -2, 3
1491432166911,-4, -5, 3, -4, 0, -3, -2, -3
1491432166919,-4, -1, -3, -4, -3, -3, 0, 1
1491432166926,6, 3, -2, 4, 3, -1, 4, -1
1491432166941,-1, -3, 1, -2, -2, -3, -5, -5
1491432166948,-9, -1, -2, -6, -4, 0, -3, -3
1491432166957,9, -1, -2, -4, -2, -1, -20, 3
1491432166971,-4, 2, 0, 1, -3, -1, -2, -2
1491432166979,0, 1, -3, -2, -5, -1, 6, -1
1491432166986,-3, 2, 1, 2, 0, -1, 1, -3
1491432167001,-6, -1, 1, 3, 2, 2, -4, -2
1491432167016,-2, -1, -1, -1, -3, -1, -6, 6
1491432167017,-4, -3, -1, -3, -2, 0, 6, -1
1491432167031,-1, -4, 0, 1, 3, -1, -1, 2
1491432167040,4, 0, -1, -9, -3, 0, 0, 1
1491432167053,1, -1, -4, -2, 0, -4, -16, -1
1491432167061,-4, 1, 2, -4, -2, 1, 4, -3
1491432167068,5, 8, 2, -4, -1, 0, -4, 2
1491432167083,3, -1, 4, 2, -4, 0, -10, 3
1491432167084,0, -3, 0, 2, -1, 0, 5, -4
1491432167091,3, -5, 0, 2, -4, -4, 4, 0
1491432167099,2, -2, -4, 3, -1, -2, 6, 7
1491432167113,-1, -3, 0, -1, -1, 0, -2, -2
1491432167121,-5, -3, -2, 4, 0, 1, 16, -6
1491432167129,-3, -1, -2, -1, 1, 0, 5, -2
1491432167143,-6, 1, 1, 1, 0, -1, 1, -3
1491432167144,-2, 0, -1, 1, 5, 0, -2, 0
1491432167151,-14, -5, -4, 1, -2, -2, -2, -7
1491432167159,-6, 0, -5, -1, 0, -2, -2, 2
1491432167173,0, 1, -1, 3, 2, -1, 1, 1
1491432167181,-4, -1, -2, 6, 0, 0, -8, -3
1491432167188,4, -3, 1, -8, 1, 0, -8, -5
1491432167203,3, 1, -2, -1, -1, 2, 16, 5
1491432167204,-4, -2, 1, -9, -3, -5, -17, 5
1491432167211,0, -2, 2, 4, -2, -3, 5, 1
1491432167221,4, -5, 2, -3, 1, -2, -13, -1
1491432167222,0, 6, 2, 0, -2, -3, 12, 2
1491432167233,-4, 1, -3, -3, -1, 1, 4, 0
1491432167241,13, 0, -1, 0, 3, 1, 4, -3
1491432167249,5, 7, -1, -1, -3, -2, 3, -3
1491432167264,-1, -3, 0, 8, 5, 2, -5, 0
1491432167271,-2, -2, -1, -2, -1, 1, -13, 3
1491432167280,-4, -8, -2, -3, -3, -1, 7, 3
1491432167293,2, -1, 1, 4, 1, 1, 7, 3
1491432167301,-2, -2, 1, 1, -3, 1, 3, 0
1491432167309,15, -3, -2, 5, 1, -1, 4, 3
1491432167323,-1, -1, 0, -3, 2, 0, -1, -4
1491432167324,2, -1, -1, -2, -3, -3, -4, -2
1491432167331,2, -1, 1, -1, 1, -3, -2, -4
1491432167339,2, 8, 3, -5, 2, -1, -13, 0
1491432167353,-3, -3, -2, -4, 1, 1, 0, -4
1491432167361,5, 4, 1, -2, -3, -4, -8, -3
1491432167368,-6, 0, -1, -1, -1, 0, 6, 8
1491432167369,-5, 5, -2, 2, -2, -1, -1, -10
1491432167384,-9, -1, -2, 3, -4, -1, -4, -12
1491432167391,-9, 1, -4, -6, -3, -4, -2, 5
1491432167399,-5, 0, 0, -2, -2, -2, 3, 2
1491432167413,-2, -1, -1, 5, 3, 3, -9, -1
1491432167423,0, -5, -2, 8, 4, 3, 10, 2
1491432167429,-4, 2, 1, -3, -1, 3, 22, 8
1491432167451,-4, -1, -1, -6, -2, -2, 10, -9
1491432167452,-5, -1, 1, -8, -4, -1, -12, -6
1491432167461,-9, -3, 1, -1, -1, -1, -6, 0
1491432167473,5, -1, 1, -3, -3, -1, -9, 3
1491432167481,2, -6, -4, -3, -3, 2, 1, 3
1491432167488,1, -1, -2, -1, 1, -3, -4, 0
1491432167504,14, 0, 0, -1, -3, -1, 16, 0
1491432167512,15, -3, -2, 5, -2, -3, 8, 1
1491432167529,2, 3, -3, -5, 2, -2, 0, 2
1491432167533,1, 0, 3, -5, 0, 0, -10, 3
1491432167541,4, -2, 1, -7, -3, -3, 5, -1
1491432167548,-5, 1, -3, -1, 0, 1, 13, -2
1491432167563,-6, 3, 0, -10, 0, -1, -29, -3
1491432167571,22, 0, 0, -2, -1, 0, 26, 3
1491432167579,-3, 0, 1, 6, -3, -4, -9, 1
1491432167594,-5, 0, -1, 3, -1, -1, -6, 7
1491432167601,4, 5, -2, 3, 2, 1, -19, -3
1491432167608,-9, -4, -3, 4, 0, 1, -5, -1
1491432167623,-6, 4, -5, 1, -3, -1, 0, 2
1491432167631,-11, -1, 1, -3, 0, -3, -7, -11
1491432167640,0, -1, -3, -5, 1, 2, 14, -4
1491432167653,-2, -2, -3, 3, -2, 1, -1, -3
1491432167661,-11, 0, 2, -5, -2, 3, 13, 2
1491432167670,-8, -1, 1, -2, 0, -3, -9, -9
1491432167684,4, -2, 1, 4, 2, 1, 19, -8
1491432167691,-2, 1, 0, -1, 0, 2, -1, -1
1491432167699,3, -5, -3, -3, -2, -2, 1, -2
1491432167713,-4, 0, -2, -4, -1, 0, 3, -6
1491432167721,2, 2, -2, -10, -5, -3, -19, 0
1491432167729,-5, 1, -3, -12, -3, -1, -5, 13
1491432167744,-2, 0, -2, -2, 1, -2, -7, -9
1491432167751,0, 1, -3, 1, 2, 1, 0, -3
1491432167759,8, -3, -3, 0, -3, -6, -1, 5
1491432167773,-1, 4, 5, 3, -3, -3, -1, 9
1491432167781,-15, -1, 0, 6, -1, -2, -48, -1
1491432167788,-2, -4, -2, 4, 2, 0, 2, -7
1491432167804,7, 10, 2, 2, 0, 2, 16, -1
1491432167811,0, -3, -3, -3, -6, -2, -4, -5
1491432167819,-1, -5, -2, 11, 8, 2, 5, 2
1491432167833,2, -2, -1, -1, -4, -1, 6, -3
1491432167842,1, -2, -4, -1, -2, 2, 25, 8
1491432167849,-4, -7, -4, 1, 3, -2, 2, -4
1491432167864,-8, -4, 1, 0, -2, -1, 0, -4
1491432167871,-8, 1, -1, -3, -2, -2, -7, 0
1491432167880,0, 1, 0, -2, 1, 1, 6, 1
1491432167893,7, 1, 1, 1, -4, -4, 1, 2
1491432167901,-7, -4, -2, 0, -2, -2, -8, 0
1491432167909,-1, -5, -1, -2, 2, 0, -27, -5
1491432167924,-2, -9, -2, -3, 1, 0, -1, -3
1491432167931,-6, 3, -2, 5, 6, 5, 21, 7
1491432167940,4, 6, 2, 1, 0, -2, -9, -4
1491432167953,3, -1, -4, 3, -1, -2, -1, -4
1491432167961,2, 0, 2, -1, -5, -2, -9, 0
1491432167975,-10, -3, -3, 1, 1, 2, 7, -3
1491432167976,16, 0, 1, 0, -3, -2, 1, 4
1491432167983,-2, 0, 0, -3, -4, 0, 7, 5
1491432167991,-3, 10, 0, -1, -1, -1, -9, -9
1491432168007,6, 1, 0, -5, 1, 1, 2, 4
1491432168013,-4, -4, -2, -3, 1, 1, -9, -3
1491432168021,0, -1, 0, 5, 3, 0, 6, -3
1491432168035,-3, -4, 0, -4, 1, -1, 10, 5
1491432168043,1, -4, -3, -1, -1, 0, 0, 2
1491432168051,-4, 1, 1, 5, -1, 2, -17, 2
1491432168066,13, -1, -2, 0, -6, -2, 4, -1
1491432168073,-3, -2, -1, -7, -3, -2, 0, 3
1491432168081,-4, -2, -1, 1, 0, 1, 3, -1
1491432168095,12, 1, -2, -3, -2, -4, -8, -1
1491432168103,-3, 5, -2, -1, -1, -1, -1, 1
1491432168111,1, 3, -1, -1, -1, 2, 15, -6
1491432168126,-5, 10, -2, -5, -3, -4, -7, -5
1491432168133,-8, -5, -5, -1, -2, -2, -3, -4
1491432168141,12, -2, 0, -1, 3, 2, -2, 1
1491432168155,-15, -1, 2, 0, 0, -2, -4, -4
1491432168163,-19, -4, -1, -1, -2, -2, -1, -4
1491432168171,-4, -1, 2, 4, -4, -4, -8, 1
1491432168186,3, -2, -2, 1, 5, -1, -8, 10
1491432168193,4, 0, 2, -3, -1, 5, 35, 8
1491432168201,-5, -7, -4, -7, -2, 0, 15, 1
1491432168215,16, 1, -4, -3, -2, 0, -2, -7
1491432168224,-11, -2, -2, 4, 1, -1, -6, 2
1491432168231,-5, -2, 1, 2, 5, 1, -8, -10
1491432168246,-3, 3, 3, -3, -7, -4, -21, -25
1491432168253,3, -2, 0, -3, -1, -1, -4, 7
1491432168261,3, 1, 2, 1, 2, -3, 3, 10
1491432168275,3, 0, 0, 1, 4, -1, -2, 0
1491432168283,16, 5, 4, 4, 6, 1, -27, -1
1491432168291,0, 0, 3, 1, 0, -4, -11, -5
1491432168306,-9, -2, -3, -3, -2, -2, 8, -19
1491432168313,-4, -1, -4, 1, 1, -3, 3, 1
1491432168321,-9, -2, -1, 0, 0, 3, 10, -2
1491432168335,-5, -3, -1, -1, -6, -2, 13, 11
1491432168343,2, -8, -3, -4, -4, -1, 4, 7
1491432168351,-6, 1, -1, 0, -4, -7, -19, 6
1491432168367,1, -1, -4, -10, -13, -5, 13, 2
1491432168373,7, 3, -3, -4, -5, -2, -13, -4
1491432168382,1, 1, 2, -2, 1, 1, -4, 7
1491432168395,-3, -1, -3, -2, -1, 1, -5, -22
1491432168403,-1, -13, -2, 4, 1, -1, -7, -12
1491432168411,-12, -3, -2, -3, 3, 1, 1, -4
1491432168426,-17, -2, -3, 4, 0, -3, -15, -14
1491432168434,-6, -1, -1, 0, -3, 0, 7, -4
1491432168441,16, 6, 0, -2, -2, 2, 8, 4
1491432168455,-3, -1, -2, -1, -3, -6, -10, -27
1491432168463,4, 13, 2, 2, 2, 3, 5, 4
1491432168471,10, 4, 0, 1, 3, 6, 4, 7
1491432168486,-6, 0, -2, 0, 0, 0, -1, -20
1491432168493,0, -3, 1, -1, -2, 1, 1, 21
1491432168501,-4, -6, 0, -3, -3, -1, 1, 10
1491432168515,-5, 1, -4, -1, 0, 2, 8, 11
1491432168523,4, 0, 1, -3, -2, -6, -9, -1
1491432168531,2, -1, 1, 11, 6, -9, -20, 27
1491432168546,1, 0, 2, 1, -3, 5, 3, 5
1491432168553,0, -4, -1, 5, -2, 3, 6, -5
1491432168561,8, -1, -1, -3, -1, -5, -11, -5
1491432168575,2, -1, 1, -3, -2, 0, 8, -5
1491432168583,-2, -1, -3, -1, -1, -9, -3, 7
1491432168591,5, -1, -2, -5, -3, -2, 12, -8
1491432168606,-2, -3, -2, 1, 0, 3, -6, 13
1491432168612,7, 0, 0, 2, 1, -3, -8, -4
1491432168613,4, 2, 2, -5, -1, -1, 3, -3
1491432168621,6, 1, -4, -2, 1, 3, 6, 16
1491432168635,0, 1, -3, -2, -3, 3, 4, -6
1491432168644,-4, 0, -2, 0, 0, -1, 2, -5
1491432168651,-5, -3, -2, -3, -3, 0, -4, -2
1491432168673,8, 8, 6, 0, -1, -2, -36, -26
1491432168681,3, -3, -2, 3, 2, 5, 5, 0
1491432168695,-7, -6, 0, 1, 0, 0, 5, -1
1491432168703,14, 4, 1, -3, -1, 2, 1, 2
1491432168704,-1, -3, -1, -3, -5, -7, -10, -14
1491432168711,2, -2, -3, -3, -3, -7, 8, 15
1491432168729,3, 0, -1, -2, -2, 2, 15, -1
1491432168733,-7, -8, -5, -4, -1, 2, -11, -13
1491432168741,-13, 0, 2, -2, 6, 2, 3, -5
1491432168755,5, -7, -4, -1, -1, 4, 17, 12
1491432168763,-4, -2, 4, 5, 4, 2, -22, 13
1491432168771,-5, 1, 0, -1, 1, -1, 2, -3
1491432168788,-4, 0, -3, 3, -2, -2, 1, 27
1491432168793,-4, 1, 0, -2, -4, -5, -5, 10
1491432168804,1, 3, -2, -4, -5, -3, 2, -10
1491432168815,22, 23, 5, 3, 2, 2, 6, 3
1491432168823,1, 4, 0, -2, -5, -3, 3, -10
1491432168832,-1, -2, -1, 0, 2, 8, 28, 2
1491432168847,23, 5, -2, 1, -3, -3, 2, -15
1491432168853,-6, -6, 1, -4, 1, 13, 34, 0
1491432168861,-12, -2, 1, -2, -4, 6, 10, -17
1491432168875,-21, -2, -2, 1, -2, 1, -18, -29
1491432168883,-6, -6, 0, -4, -3, -2, 5, 1
1491432168898,-7, -3, -2, 0, 3, -10, -43, 24
1491432168906,-4, -3, -2, 0, -1, 1, 14, 2
1491432168913,7, -6, -2, 2, -2, -3, 13, -9
1491432168929,-4, 4, 3, 0, 7, 3, 0, -10
1491432168935,0, -6, -4, -2, -5, -4, -10, -16
1491432168936,-6, -3, -3, -4, -3, -6, -2, -6
1491432168943,12, -2, 2, -1, -1, 1, 8, 65
1491432168958,9, 0, -2, -3, -2, -3, -8, -2
1491432168967,0, -4, -2, 1, -1, -2, -5, -2
1491432168973,-6, -4, 0, -1, -2, -2, 15, 26
1491432168988,-5, 2, -2, -2, 6, 2, -5, 0
1491432168989,-4, -7, -2, -1, -8, -9, -11, -3
1491432168995,-8, 0, -1, -3, -1, 0, -9, -24
1491432169003,5, 1, -2, -2, 7, 3, 7, -5
1491432169018,6, 0, -1, 1, -3, -5, -6, -5
1491432169026,-9, 0, -3, 1, 0, -1, -5, 5
1491432169033,2, 0, -4, 1, -4, -2, -27, -4
1491432169048,-2, -2, -1, -7, 0, -1, 1, -28
1491432169055,-9, -4, 5, -1, -6, -1, 15, -20
1491432169064,-1, 3, 0, -3, 8, 6, 17, 31
1491432169078,-16, 1, 0, 1, 3, -7, -3, -13
1491432169086,10, 3, 1, -2, 2, 2, 7, -4
1491432169093,-4, 0, 1, 3, 0, 4, -25, 7
1491432169108,9, 0, -1, -1, 0, -7, 1, 29
1491432169109,-4, 2, 0, 1, -1, -3, -14, -11
1491432169115,8, 0, -4, -3, 5, 1, 1, 9
1491432169123,7, -3, -4, -2, -15, -4, -40, -12
1491432169138,7, -1, 1, 2, -5, 2, 9, 2
1491432169147,-5, 2, 1, 1, -2, -10, 10, 18
1491432169153,-2, -5, -1, 2, 0, 2, -22, -7
1491432169154,-10, 6, -2, -2, 8, 3, 26, 0
1491432169168,-5, -4, 2, -1, 0, 0, -4, -21
1491432169176,6, -4, 2, -5, -2, 2, 7, -8
1491432169184,3, 1, 1, -3, -7, -3, 29, -19
1491432169199,11, -5, -4, -1, 14, 2, -5, 2
1491432169206,2, 0, -2, -2, 4, 12, -1, 17
1491432169221,-1, -1, -4, 1, -13, -5, -8, -1
1491432169230,-8, -1, 0, 0, 5, 0, -9, -4
1491432169236,-2, 5, 3, 2, -1, 1, 1, 9
1491432169244,1, 0, 1, 4, -9, -3, -2, 11
1491432169259,3, -4, -4, -5, -17, -3, 5, 4
1491432169266,-10, -11, -5, 1, 4, -2, -4, -6
1491432169281,4, -4, -5, -3, 5, 1, 4, 1
1491432169288,7, 0, -4, 0, -1, -3, 2, 1
1491432169296,-5, -3, -2, -4, -4, -8, -17, 13
1491432169303,1, -3, -1, -2, -6, -4, -6, 12
1491432169319,-2, 3, 1, -5, -13, 0, -4, 9
1491432169326,-19, 2, 0, 2, -4, 6, -33, -21
1491432169341,5, -10, 0, -3, 1, 1, 43, 23
1491432169348,0, -1, -1, 2, -13, -3, -52, -6
1491432169349,-2, 0, 1, -2, 2, -1, 16, -1
1491432169357,-1, 17, 5, 4, 7, 2, -2, -20
1491432169363,7, 9, 1, 4, 5, 2, -1, -11
1491432169379,-5, -3, 3, 2, 6, -2, -7, -6
1491432169386,9, -3, -1, 0, 9, -10, -29, -22
1491432169401,0, -1, -1, 4, 3, -3, -25, -23
1491432169408,2, -1, -4, -1, 1, -1, 8, 3
1491432169417,5, -3, -1, 0, 3, -2, 1, -1
1491432169425,8, -2, 0, -2, 0, 0, 1, 12
1491432169440,3, 4, 0, 3, 10, -1, 9, -37
1491432169446,-5, -2, 0, -7, 20, 5, 4, -1
1491432169462,-1, -3, -2, -8, -12, 0, 6, -24
1491432169468,-5, -10, -2, 4, 2, 2, 6, -20
1491432169476,3, -4, -6, -1, -2, 1, 7, 6
1491432169483,5, 10, -1, -1, -8, 2, 12, 17
1491432169499,-10, -9, -2, -6, -10, -4, -1, 20
1491432169506,-14, -2, -1, 0, 2, 0, -15, -11
1491432169521,2, 2, -1, -1, 24, 5, 6, 9
1491432169529,-7, -7, -1, -4, -1, 0, 8, -10
1491432169537,7, -6, -3, 2, -3, -3, -9, 43
1491432169543,2, -4, -2, -1, -27, -7, 9, 3
1491432169559,-6, 3, 1, 2, 5, -1, -8, -22
1491432169566,-5, -3, -2, -3, 11, -5, -16, -2
1491432169581,-2, -3, 0, -2, -6, -6, -24, -26
1491432169588,-9, 3, 1, -1, -6, 3, 6, -3
1491432169596,-11, -1, -1, -2, -6, -4, -27, 7
1491432169603,0, -2, -1, 2, -7, -4, -20, 24
1491432169619,-1, -3, -4, -5, -25, -7, 15, 5
1491432169626,-2, -2, -1, 1, 9, 2, -5, -3
1491432169643,3, 3, -2, -3, -9, -2, -8, 2
1491432169650,4, -3, -3, 1, 0, -4, 0, -9
1491432169658,-5, 3, -2, -1, 32, 7, -26, -17
1491432169663,2, 4, 0, 0, 6, 5, 21, 0
1491432169680,-2, 6, 3, 0, -18, -13, 28, 14
1491432169686,-3, -5, 0, 2, 2, 2, 6, 4
1491432169703,-17, -7, -2, 0, 0, 6, 7, -2
1491432169708,-6, 9, 4, -2, -37, -17, -4, -7
1491432169717,9, -5, 1, 3, 38, 24, 9, 16
1491432169724,1, -2, -1, -5, -6, -8, -15, -17
1491432169739,-10, 2, 0, 2, -17, -3, 1, 21
1491432169746,10, 2, -3, -4, 2, 3, 9, 11
1491432169761,-1, 0, -2, 2, -9, -6, 1, -31
1491432169769,-8, -1, -3, 1, 26, 1, -5, -14
1491432169777,7, 2, -5, -3, 2, 1, -3, 3
1491432169783,7, 6, 0, -7, -7, -2, -7, 26
1491432169799,6, 4, 0, 1, -13, -3, -33, -25
1491432169806,-5, -5, -1, 2, -3, 2, 6, -4
1491432169821,-1, -4, 1, -1, -15, -3, 4, 1
1491432169828,5, -3, 1, -4, -2, 2, 4, -12
1491432169829,-3, 0, -2, 3, 3, -1, -5, -4
1491432169838,0, -9, -3, -4, 14, 2, 3, 1
1491432169852,4, 2, 1, 0, -11, 5, 22, -15
1491432169861,1, -7, 2, -4, -4, -7, -6, -22
1491432169866,13, -3, -2, 2, -26, -11, 3, 9
1491432169881,-7, -2, -2, -1, 8, 3, 6, -11
1491432169888,-17, 5, 1, 1, 15, -6, -4, -5
1491432169896,-9, -5, -1, 1, -4, -11, 10, 6
1491432169911,-1, -6, -3, 3, 38, 7, -8, -27
1491432169919,-2, 2, -2, -3, 12, -1, -6, -7
1491432169926,1, 0, 1, -4, -11, -3, -5, 47
1491432169941,6, 12, -1, -1, 10, 1, 7, 31
1491432169948,3, -3, -3, -7, -2, 0, -3, 0
1491432169956,-1, -2, -2, -1, -10, 1, -27, -9
1491432169971,-7, 1, 0, 1, -6, -1, -15, -33
1491432169986,1, 0, -1, 2, 17, 9, 17, 3
1491432169987,-5, -10, -3, -4, 4, -2, -6, 28
1491432170001,12, -2, 0, 0, -12, -11, -4, -9
1491432170008,0, -2, -1, 6, 18, 4, 7, -6
1491432170016,0, 5, -3, 2, -1, -3, 16, 5
1491432170031,5, -1, 2, -1, 12, 5, -11, -8
1491432170039,2, 4, 2, -2, -1, 5, 21, 6
1491432170046,-3, 2, -2, 0, -18, 2, -22, 9
1491432170068,2, -5, 1, -2, -3, -1, 1, 2
1491432170070,-2, 4, -2, -4, 3, -3, 0, 5
1491432170076,-2, -2, 0, -1, -17, -4, -6, 8
1491432170091,-3, -2, -1, 1, -19, 1, 4, -22
1491432170099,-3, -3, 0, -4, 14, -1, -8, -4
1491432170106,-2, -2, -1, -2, -18, -2, -3, -5
1491432170121,-6, -8, 0, 0, -5, 2, -6, -17
1491432170128,-14, -2, -1, -2, -8, -6, -8, 7
1491432170129,3, 1, 0, -2, 8, -6, 9, 4
1491432170136,-2, -2, -1, -3, 29, 3, -10, 6
1491432170151,1, 4, 1, -3, -23, -16, 18, 21
1491432170159,-2, 1, 1, 3, 13, 9, 1, -18
1491432170166,0, -2, -1, -4, 3, -2, 9, -12
1491432170181,-4, -6, -2, 1, 8, 2, 1, 37
1491432170189,-1, 8, -3, 2, -8, 4, 11, -20
1491432170196,1, 0, 2, -4, -17, -3, -8, 1
1491432170211,-6, -3, 1, 0, -21, -6, -10, -10
1491432170219,5, -8, -2, 1, -21, 1, 3, -6
1491432170226,0, 0, -1, 0, -5, 11, 4, -21
1491432170241,-4, 0, 0, -1, -13, -17, -20, -16
1491432170248,4, -2, 2, 4, 28, 8, -9, -4
1491432170257,2, 4, -2, -4, -14, -4, 3, 2
1491432170271,3, -3, -1, -6, -2, -1, -8, 42
1491432170280,2, 4, -1, -3, 1, 3, -2, -9
1491432170286,-1, -2, -4, 1, -15, -11, 6, 10
1491432170301,1, -5, -3, -10, 6, -2, 26, 8
1491432170309,3, 10, 5, 12, 110, 49, 8, -42
1491432170316,0, 6, 3, -1, -35, 4, 5, -28
1491432170331,7, 3, -3, -3, -44, -14, 3, 3
1491432170339,-7, 6, -2, -5, -38, -24, -11, -11
1491432170346,-10, -4, -2, -3, -20, -5, 4, -43
1491432170361,-4, -2, -4, -3, -11, -5, -3, 5
1491432170368,1, -2, 0, -2, 13, -13, -7, -2
1491432170376,5, 5, 2, 7, 44, 48, -5, 23
1491432170392,3, 1, -4, -4, -31, -10, -3, 36
1491432170400,-6, -6, -2, 1, -13, -17, 2, -22
1491432170406,-2, -6, -3, 0, 7, 3, 3, -3
1491432170422,5, 3, -1, 8, 15, 17, 16, -23
1491432170423,-3, 0, -1, -9, -8, -16, -5, 17
1491432170429,-5, -3, -5, -3, -23, -10, -8, 24
1491432170436,-4, 0, -2, 2, -6, 1, 6, 18
1491432170451,15, -10, 1, 0, -2, 2, 7, 37
1491432170459,2, 0, -4, -3, 14, -8, -6, -10
1491432170466,0, 2, -2, -6, -13, -11, 4, -3
1491432170481,7, -6, -1, 4, -2, -4, 10, -15
1491432170490,-10, -3, -1, 0, 21, 0, -9, -1
1491432170496,-13, 1, 2, 2, -16, -2, -7, 19
1491432170511,2, 8, 4, 0, 12, 20, 4, 6
1491432170519,6, -3, 0, 3, -20, -8, -2, -19
1491432170526,-7, -2, -3, 0, 22, -1, -21, -24
1491432170543,1, -2, 0, -3, -4, -10, -7, 48
1491432170548,15, 9, 1, -1, 18, 7, 7, -36
1491432170558,-9, -8, -2, 0, 23, 0, -1, -12
1491432170571,10, 0, 1, -3, -11, -11, -3, 21
1491432170572,-4, -3, -3, -1, -36, -9, 11, 19
1491432170579,-3, -4, -3, 3, 34, 14, 9, -28
1491432170586,-6, -8, -3, -5, -20, -13, -32, 65
1491432170601,0, -1, -7, -9, -15, -9, -9, 0
1491432170610,-10, 0, 0, 1, -15, -8, 19, -17
1491432170618,-10, -4, -2, 2, -32, 4, -25, 12
1491432170631,4, 6, 0, -1, -27, -9, 8, 4
1491432170639,4, -6, -1, 2, 15, -2, 9, -27
1491432170646,-7, -4, 3, 6, 38, 9, -7, -23
1491432170661,-12, 5, -1, 2, 12, 1, 0, -7
1491432170668,3, -4, -2, -3, 5, -2, 1, -37
1491432170678,10, -3, 2, 4, 74, 14, 7, -14
1491432170691,-4, 2, -2, 1, 17, 5, 2, -8
1491432170700,-5, 1, -3, 3, -42, -13, -8, -8
1491432170701,5, 3, 1, -8, -3, 11, 10, 23
1491432170706,3, 1, -6, -5, -17, -7, -4, 31
1491432170721,0, 4, 3, 2, -8, 0, -4, -9
1491432170729,8, -3, -1, 1, -13, -8, -5, 46
1491432170736,7, 17, 2, -4, 30, 10, 1, 78
1491432170751,-1, 0, -1, -3, 2, 2, -2, -15
1491432170759,-4, 1, -2, -1, -11, -1, -5, 13
1491432170760,7, -7, -6, 0, -1, -4, 6, -45
1491432170774,6, 5, -2, -1, 4, 3, 13, 19
1491432170782,3, 0, -2, -1, -19, 1, 6, 11
1491432170788,-12, -1, -3, -5, -9, -5, -26, -35
1491432170803,1, 10, -2, 0, -35, -11, -6, 19
1491432170812,-4, 0, -5, -2, 13, 4, -1, -2
1491432170813,-2, -2, 2, 0, 1, 3, 2, 7
1491432170819,9, 33, 9, 4, -2, 5, -6, 11
1491432170833,12, 10, -1, -3, 9, 2, 1, 9
1491432170845,-13, -14, -3, -3, -6, -8, 4, -48
1491432170848,-3, 4, 1, 1, 1, 3, -1, -11
1491432170863,-4, -3, 1, -3, 10, -1, -5, 25
1491432170871,-7, -15, -3, -5, -13, -6, -4, -11
1491432170881,-13, -6, 0, -4, -11, -2, 9, -9
1491432170893,-5, -1, 3, 4, -1, -5, 2, 3
1491432170901,-20, -15, -5, 0, -8, 6, 1, 12
1491432170908,-2, -9, -2, 1, -9, 4, -7, 0
1491432170923,4, -5, -2, -4, -9, -12, -14, -10
1491432170931,-4, -9, -3, -3, 52, 1, 4, -26
1491432170939,15, 4, 0, -2, -30, -5, -1, 16
1491432170953,-1, 15, 4, 1, -28, -1, 5, 2
1491432170961,-2, 2, 3, -2, 17, 8, 1, -16
1491432170968,-4, 3, -1, -1, -33, 6, 5, -19
1491432170983,0, -5, -7, 0, -20, -3, -4, -7
1491432170992,8, 0, 1, 0, -6, -13, -4, -12
1491432170999,12, 12, 1, 4, 26, 5, -7, -18
1491432171013,-3, -8, -5, -4, -5, -7, 0, 3
1491432171021,-3, -3, -2, -3, 10, -11, 3, 6
1491432171029,-3, -3, 1, 5, 18, 3, -5, 13
1491432171043,1, -2, -2, 1, -7, 0, -2, 20
1491432171051,-2, -5, -4, -3, 7, 4, 4, 22
1491432171059,-1, -10, 0, -1, 11, -9, 8, -26
1491432171073,1, -7, -4, 1, -13, -3, -23, -11
1491432171074,-2, 7, 0, -1, 24, 6, 0, 4
1491432171081,1, -3, 0, -2, 3, 5, 17, 1
1491432171088,-6, -4, -1, 1, 8, 6, 2, 7
1491432171103,0, 2, 0, 3, -8, -1, -1, 8
1491432171116,5, -1, -3, -3, -18, -7, -12, -8
1491432171119,-1, -3, -7, -1, 8, 5, -2, -1
1491432171133,2, 6, 0, 0, -24, -1, -8, 2
1491432171141,-8, -1, -3, -1, -12, -4, -15, -12
1491432171148,-6, -1, 1, 0, 1, -6, 4, 6
1491432171163,-3, -3, -3, -2, -10, -1, -5, 6
1491432171164,-3, -3, -3, -2, -1, -4, -4, 5
1491432171171,-1, -2, -4, -3, 6, 2, 6, 6
1491432171186,-1, 0, -2, -4, 32, 8, 4, 3
1491432171193,-5, -5, -1, -3, 3, -1, -2, 0
1491432171202,-2, 0, 1, -9, -14, -3, 1, -12
1491432171208,0, -5, -3, 2, 7, 4, 9, 2
1491432171223,-6, -1, -2, -7, -11, -2, -7, 16
1491432171231,-1, -4, 0, 20, 14, 0, -4, 1
1491432171239,1, 2, -3, 2, -10, -1, -5, 15
1491432171253,-1, 4, 0, -2, -9, -1, 9, -21
1491432171268,1, -1, -1, 1, -1, -6, -9, -30
1491432171270,2, 6, 1, -14, -1, 0, -4, 7
1491432171284,1, 0, 3, 0, -6, -2, 1, 3
1491432171291,-3, -5, -1, -4, 0, 0, -3, 26
1491432171299,0, -4, -2, 17, -17, -8, -4, 36
1491432171313,5, -1, -3, -1, -13, 0, 2, -5
1491432171321,-11, -1, -1, -5, -4, 0, 3, -3
1491432171329,-8, -3, -5, -15, -6, -5, -1, -7
1491432171343,11, 1, -2, -6, -1, -2, -5, -8
1491432171351,2, 2, -2, 2, 5, 3, -1, 8
1491432171359,1, -1, -3, -6, -2, -3, 0, -4
1491432171373,2, 3, -1, 2, -3, -1, -4, 6
1491432171374,-1, 1, 2, -1, 2, 0, -2, -7
1491432171388,-1, -2, 1, 5, 3, 4, 3, -2
1491432171389,1, -2, 1, 6, -4, -3, -5, -13
1491432171403,7, -3, -3, -2, 9, 3, -1, -4
1491432171411,-1, 2, 1, 4, -1, -4, -7, -8
1491432171419,-1, 2, -1, -5, -2, 0, 11, 0
1491432171433,-2, 2, -1, 4, -1, 0, 0, -3
1491432171441,-4, 1, 6, 10, 1, 0, 2, 0
1491432171449,0, -1, -1, -19, -3, -2, 1, -10
1491432171463,-2, -8, -2, -13, -5, 1, -2, 0
1491432171471,0, -4, -3, 7, -2, 0, -2, 10
1491432171479,-1, 2, 0, 5, -1, 1, -6, 2
1491432171493,1, -3, 1, -4, -2, 0, -1, -2
1491432171501,3, 4, -2, 12, 3, -1, -13, 2
1491432171508,1, 1, -4, -3, -4, -4, -2, -4
1491432171523,4, 8, 1, 3, 6, -1, -2, -1
1491432171531,-3, -4, 2, -6, 1, 1, -2, 3
1491432171539,-3, -4, -2, -3, -3, 0, 1, -2
1491432171553,-3, -5, -3, -11, -3, -1, 4, -2
1491432171561,1, 0, 0, 5, 3, 0, -2, -1
1491432171568,2, -3, 0, 10, -1, -1, 0, 1
1491432171569,3, -4, -2, 8, 0, 2, 1, -2
1491432171584,-1, -1, -1, -4, -3, -3, -2, -3
1491432171591,-2, 3, 1, 1, -2, -2, 0, 2
1491432171599,-2, 2, -2, -7, -3, -5, 0, 1
1491432171613,0, 0, 3, 11, 2, 0, -2, -1
1491432171622,-6, -1, 0, -4, -3, 0, -1, -3
1491432171629,-2, 0, -1, -15, -2, -2, 0, -1
1491432171643,2, 9, 5, -3, 1, -1, -5, 1
1491432171651,-1, -2, -4, -5, -9, 0, 3, -5
1491432171659,-1, -7, 0, -1, -3, -3, 5, 2
1491432171673,-3, 0, 0, -1, 0, 1, -2, 2
1491432171681,0, -1, -2, -1, -2, 2, 0, -1
1491432171695,-6, 2, 3, -2, 1, 1, -5, -7
1491432171696,2, -4, 0, -2, 1, 1, 0, -2
1491432171704,-3, -4, 1, -3, 1, -2, -4, -2
1491432171711,-5, -8, -5, 2, -2, -9, -8, -6
1491432171726,0, -1, -1, 4, 2, 0, 0, -6
1491432171733,0, -4, -3, 1, 1, 1, 0, 5
1491432171741,-1, 5, 0, 7, -5, -3, 4, 2
1491432171755,-3, 0, -1, -8, 0, -1, 2, -2
1491432171763,-1, -3, -3, -8, -3, 1, -1, -3
1491432171771,0, 0, 1, 4, 5, 2, -3, -4
1491432171786,-3, -2, -1, 35, 11, -2, -4, -1
1491432171793,-3, -1, 2, 13, 5, -3, -2, 0
1491432171802,3, -2, -3, -11, -3, 1, 2, -5
1491432171815,0, 4, -1, 6, 1, 2, 3, 4
1491432171823,5, -4, -2, -8, 0, 1, 0, 8
1491432171832,0, 1, -5, -11, -9, -6, -1, -1
1491432171846,-11, 1, -1, -1, -1, -2, -2, -3
1491432171853,9, 1, -3, -2, -4, -1, 1, 0
1491432171854,-5, -1, -1, -8, 0, 2, 0, 0
1491432171861,-1, 9, 1, -9, 2, 1, 4, -1
1491432171875,-2, 0, 0, 13, -1, -5, 1, -1
1491432171883,0, -3, -3, 1, 7, 5, -1, 0
1491432171891,4, -4, 0, -8, 0, 3, 1, 1
1491432171906,1, 6, 0, -1, -3, -4, -3, 0
1491432171913,2, -3, 0, 6, 2, -1, -2, -1
1491432171914,-3, -1, -3, 0, 0, -2, 2, -1
1491432171921,-1, -3, -2, -3, -3, -4, -3, -4
1491432171935,3, 9, 2, -7, -8, -3, 0, -3
1491432171943,-5, -8, 0, -2, -4, -1, 4, 7
1491432171951,-1, -4, -2, 16, 1, -1, -1, -1
1491432171966,0, -1, -1, 7, -8, -2, -6, -6
1491432171973,-4, -2, 2, 3, 1, 1, -2, -6
1491432171981,-1, -5, 0, -6, -2, 2, -1, 1
1491432171995,1, 1, -5, -2, -1, 0, -3, 2
1491432172003,-3, -4, -1, -3, 1, -2, 2, -5
1491432172011,3, -1, -1, -10, -6, -5, 0, 11
1491432172026,-5, -2, -2, 0, -1, 0, 2, 0
1491432172033,-4, -7, -4, -8, 1, 2, 5, -3
1491432172041,1, -6, -1, -8, 0, -2, -6, -3
1491432172056,0, 2, 2, 9, 1, -1, -10, -3
1491432172063,1, -1, 0, -11, -4, -1, 5, -3
1491432172071,-5, -4, -2, -1, -2, 0, 2, -3
1491432172086,-2, -1, -1, 20, 0, 0, 1, -2
1491432172093,3, 3, 0, 1, -1, -2, -1, -4
1491432172101,0, -2, -2, -11, -4, -1, 1, 0
1491432172116,2, 4, 1, -4, -3, -4, -1, -2
1491432172125,2, -3, -7, 3, 2, -1, -4, -1
1491432172131,6, -2, -3, -5, -3, 2, 1, -2
1491432172146,-1, -5, 1, 10, 2, -3, -11, -3
1491432172153,2, -5, -1, -14, -9, -3, 4, -3
1491432172154,-4, 6, -1, 7, 6, 1, -4, 3
1491432172161,3, 1, -2, -8, -9, -1, 8, -4
1491432172175,-5, 0, 3, 6, 5, 1, -4, -2
1491432172183,-6, 2, 2, -4, -3, -1, 3, 2
1491432172191,0, -4, -3, 7, 0, 3, 2, 3
1491432172206,2, 0, 1, -6, -7, -2, -5, -1
1491432172213,0, -2, -4, -6, -1, -1, 3, 1
1491432172222,1, 1, -2, -12, 2, 1, 5, -3
1491432172235,-3, -1, 0, -9, -5, -2, 3, -7
1491432172243,8, 1, -1, 4, 3, 3, 0, 1
1491432172251,1, 1, 2, 12, 3, -1, -2, 1
1491432172266,-6, 2, 1, 4, -3, -3, -7, -1
1491432172273,0, -2, -1, -14, -9, -7, -8, -2
1491432172282,1, 4, -3, -12, 3, 0, 1, 0
1491432172295,-1, -2, 0, 3, 1, 3, 6, -1
1491432172303,0, 0, -2, 4, 1, 0, 6, 3
1491432172311,0, 3, -1, -14, -2, -4, 4, 0
1491432172326,-5, -8, -2, 13, -1, 0, -10, -2
1491432172335,-8, 2, 0, 13, 4, 0, -1, -2
1491432172341,-9, -4, 0, -3, -2, -2, 0, -5
1491432172355,3, -4, 0, 0, -1, -1, -1, -4
1491432172363,2, 1, 1, -10, -3, -2, 0, 0
1491432172371,-3, 1, -1, -1, 1, 0, -2, 2
1491432172386,1, -1, -3, -6, 0, -1, -2, 1
1491432172393,-1, 6, 0, -2, -3, -4, -3, 0
1491432172409,7, 2, 5, -2, 1, -3, -5, 4
1491432172415,-3, -10, -1, 0, -2, 5, 2, 13
1491432172423,8, 3, -1, -14, -5, -4, 7, 22
1491432172431,0, -3, -2, -9, 2, 0, -2, 7
1491432172446,0, -3, -3, 10, 5, 0, 1, -4
1491432172453,2, -5, -6, 0, -3, 1, 2, -9
1491432172463,-4, -3, -3, -5, -5, -3, 1, -30
1491432172475,-2, -2, -2, 4, 2, -2, -2, -16
1491432172483,-1, 5, -1, 2, 2, 1, -3, 5
1491432172491,5, 3, 0, 6, 2, -1, -4, 5
1491432172506,-5, -1, -1, 2, -2, -1, -6, -16
1491432172513,0, -2, -1, -4, 0, 0, 0, 1
1491432172522,1, -1, -1, 0, -4, 0, -7, -3
1491432172535,2, 4, 1, -5, -1, -5, -10, -23
1491432172544,-5, -4, -6, -7, 0, 3, 8, 1
1491432172551,4, -4, -2, 15, 1, 4, 6, 11
1491432172566,-2, -1, -2, -2, 2, -1, -2, 12
1491432172573,-4, 2, -1, -15, -5, -7, -9, -11
1491432172581,-2, -1, 1, 2, 1, 1, -2, -2
1491432172595,-2, -2, 0, -2, -7, -2, 6, 18
1491432172603,-7, 8, 2, -3, 1, -3, -4, -4
1491432172611,-3, -1, -1, 2, 0, 2, -5, 23
1491432172626,1, 4, 0, 8, -1, 0, -3, 7
1491432172633,1, 3, 0, -3, 0, 0, -3, -33
1491432172649,-6, -1, 1, 2, -2, 2, 3, -8
1491432172655,-2, 1, 1, -2, -1, -5, -8, -17
1491432172663,-5, 4, 0, 2, 0, -1, 9, -2
1491432172678,-1, 2, 3, 6, 0, 2, -12, 2
1491432172686,5, -8, -2, -4, -3, -3, -14, -1
1491432172693,0, -6, 0, -4, -1, -2, 14, 0
1491432172708,-1, 1, 0, 1, 2, 2, 4, 1
1491432172715,-4, -6, -4, -6, -4, -3, 2, -8
1491432172723,3, -2, -1, 5, 0, -2, 1, 5
1491432172738,0, 2, 0, 0, 4, -3, -11, 10
1491432172754,3, -3, 0, -3, 1, 1, -3, 15
1491432172755,-5, 0, 1, -3, -2, -1, 3, 7
1491432172768,0, 0, -1, 10, 3, 0, 8, 10
1491432172775,-4, 2, -4, -2, -4, 2, 3, -15
1491432172783,0, -1, -3, -4, 0, -3, 2, -15
1491432172798,2, -2, -5, 4, 0, -1, -1, -3
1491432172806,-1, 3, 1, -2, 0, 0, -16, -8
1491432172813,2, 0, 2, -1, 0, -1, 0, 2
1491432172832,-1, -6, -2, -3, -3, -3, -3, 2
1491432172835,2, 1, 5, -3, -2, 1, 2, 6
1491432172844,1, -1, -3, -6, 0, -2, -3, -2
1491432172858,2, 1, -5, -2, 0, -2, 1, 4
1491432172866,0, 1, 2, -6, -6, -4, -5, -10
1491432172873,0, 0, -2, 9, 7, 0, 5, 3
1491432172874,1, -5, -2, -2, -14, -3, -2, -3
1491432172889,2, 5, 1, -7, 1, -1, -5, 0
1491432172890,-3, -6, -3, -3, 7, 2, 7, -5
1491432172895,0, -3, 1, 0, 4, 1, 3, 4
1491432172903,4, 0, 1, 3, -4, 0, -4, -1
1491432172918,-2, -3, -1, 0, 0, 0, 1, 7
1491432172926,-1, 3, -1, -1, 0, 0, -2, -2
1491432172933,-2, -2, -1, 1, 1, 0, -7, -1
1491432172955,-2, -2, -1, -4, -2, 0, -5, 1
1491432172956,-1, 0, 0, -1, 2, -2, -15, -6
1491432172964,-1, -1, -2, -5, -7, -1, 6, -6
1491432172977,1, 0, 2, -5, 0, -2, -2, -5
1491432172986,1, 2, -1, 2, -3, 2, 14, -4
1491432172993,-2, 0, -6, 2, 2, 1, 7, 1
1491432173008,1, 5, 2, 3, -7, -4, -5, 3
1491432173015,-3, -2, -6, 1, 4, -2, -3, -7
1491432173023,-8, 5, -2, -4, 2, -3, -6, -2
1491432173038,-4, 5, 0, -1, 0, 2, -1, 0
1491432173046,-2, 3, 1, 2, 2, -2, 6, 1
1491432173053,1, 1, 0, -2, -7, -2, 4, 0
1491432173068,0, 0, -1, -1, -1, -3, -6, -2
1491432173076,3, -8, 1, -1, -1, 1, 3, 2
1491432173086,0, -8, -3, 0, 0, 3, 8, 6
1491432173098,-2, 2, -1, 15, 5, -2, 1, 0
1491432173106,0, -6, 2, -5, -1, -1, -1, 2
1491432173113,7, 1, 3, 3, 2, -2, 2, 3
1491432173128,-1, 1, -1, -5, 2, 0, 0, -1
1491432173129,-1, -3, 3, -1, 1, 0, -5, 1
1491432173137,-8, 2, -2, -4, -2, -2, -7, -5
1491432173143,2, -4, -5, -7, -8, -2, -4, -2
1491432173157,3, 0, 1, -5, 2, 1, 7, 2
1491432173167,-3, -6, -1, -2, -4, 0, 0, -2
1491432173174,-2, -2, -2, -4, -4, -3, -16, -6
1491432173188,7, -5, -5, 7, 3, -3, -1, -3
1491432173196,0, 1, -2, 1, 0, -1, 11, -3
1491432173204,-3, 4, 0, -9, -3, 0, -3, -2
1491432173218,3, 1, -3, -8, -1, 0, 4, 2
1491432173226,-3, 3, -1, -8, -6, -2, -1, 0
1491432173234,-3, 1, 1, -2, 1, 2, -4, -2
1491432173248,-1, -1, -2, 7, 4, 0, -3, -5
1491432173256,0, 2, 0, -17, -4, 1, -2, 1
1491432173271,-1, -11, -4, 8, 8, -1, -9, -4
1491432173277,-1, -2, 1, -6, -4, 0, 4, 2
1491432173286,2, 5, 4, 17, 2, -1, 4, -7
1491432173293,-4, 8, 0, -10, -2, -2, 1, -2
1491432173308,-1, 3, 2, 14, 4, 2, 5, 1
1491432173316,1, 0, -1, -10, -6, -2, 3, -5
1491432173324,1, 3, -1, 19, 13, 3, 4, -1
1491432173337,-6, -2, -4, -11, -7, -4, 4, -6
1491432173338,-2, -3, -2, 7, 1, -1, -10, -3
1491432173346,0, 5, 3, -14, -5, -3, -5, 2
1491432173353,6, -3, -2, 9, 5, -2, 2, -4
1491432173368,1, 0, -2, -10, -1, 4, -2, 3
1491432173376,-2, 3, 0, -5, -3, -2, -1, 10
1491432173386,-3, -4, -4, -7, -7, -3, -7, 5
1491432173397,0, -2, 0, -11, -3, 0, 3, -2
1491432173398,-4, -10, -1, 11, 1, 2, -5, -6
1491432173406,-4, -3, 0, -7, -1, -1, 1, -5
1491432173413,-3, 5, 3, 7, 1, 0, 7, 4
1491432173430,-3, -2, -1, -4, -5, -2, 4, 5
1491432173436,-3, -7, -1, 10, 2, -3, 6, -2
1491432173444,0, -3, 2, -4, -2, -3, 0, -2
1491432173457,-3, 6, -3, 3, 2, 0, 4, -1
1491432173458,7, 2, -2, -4, -4, -5, -7, 0
1491432173467,-9, 1, -2, 7, 1, -3, 1, -7
1491432173473,-1, 6, 3, -4, 1, 1, -6, -3
1491432173488,2, 6, 1, -9, -1, -2, 9, 1
1491432173496,-5, -2, 1, 0, -6, -3, 2, -1
1491432173504,-1, -7, -3, -3, -2, 1, -3, 3
1491432173517,0, -9, -3, -1, 1, 1, 7, 0
1491432173525,-6, -4, -1, -10, -3, -1, -3, -3
1491432173533,6, -2, -3, -23, -1, -3, -10, -6
1491432173548,-3, -4, -4, -14, 0, -2, -1, 3
1491432173556,-8, -2, -5, 7, 0, -2, -1, -2
1491432173571,1, -1, 0, -1, -5, -3, -6, -10
1491432173577,8, 0, 4, -5, -6, -1, -10, 1
1491432173586,0, -2, 2, 11, 2, 2, 2, -1
1491432173600,-7, -5, -4, 0, 4, 1, 3, -2
1491432173608,4, 1, -1, 3, 2, -1, -4, 1
1491432173616,-2, -2, 0, -4, -2, -3, -1, 1
1491432173631,4, 5, 0, -4, -4, 1, 0, -1
1491432173638,-10, -6, -3, 3, 4, 1, -2, 1
1491432173646,-6, -3, -6, 0, -4, 0, 7, 4
1491432173660,2, -5, -2, 8, -2, 0, 6, -1
1491432173668,2, 3, 2, -1, 0, 1, 2, -4
1491432173675,5, -3, -1, 4, 1, 1, 2, -7
1491432173691,0, 1, 0, 9, 1, -1, 0, -2
1491432173697,-10, 5, 0, -7, -2, -2, -27, 2
1491432173706,-1, 4, -3, -10, -2, 0, -7, 9
1491432173720,0, -1, 0, 1, -1, -2, 2, 7
1491432173728,-1, 1, -1, -1, -4, -1, -1, 5
1491432173735,0, 2, 0, -2, -2, 0, 2, 0
1491432173751,7, -3, -1, -3, 1, -1, -4, -12
1491432173757,5, 2, -1, 5, 2, -1, 2, -7
1491432173766,-8, 2, -2, 3, 0, -3, -2, 0
1491432173780,-4, -3, -3, -11, -6, -2, 0, -6
1491432173788,-5, 0, 1, -13, 4, 1, -5, -10
1491432173795,3, 3, 0, 3, 3, 1, 4, 2
1491432173811,15, 1, 2, 6, 2, -1, -2, 2
1491432173825,12, 8, 2, -5, -2, 2, 7, 5
1491432173828,-5, -5, -2, -3, -2, -5, 2, -3
1491432173840,2, 10, 2, -4, -2, -1, -3, -2
1491432173841,-7, -9, -4, 0, -1, -2, -4, 2
1491432173848,-2, -2, -1, 8, -4, 1, 2, 0
1491432173855,0, -2, -2, 3, 2, -2, 2, -3
1491432173872,-4, 2, 2, -4, 0, -2, -4, -1
1491432173879,0, 2, -2, -8, 1, 0, 8, 3
1491432173887,1, 2, -3, -15, 0, 1, 8, 14
1491432173900,-2, -2, -3, -2, -3, 0, 1, -8
1491432173908,-6, -4, -2, 7, 0, 0, -2, 7
1491432173915,4, 4, 3, -3, -1, -1, -2, -4
1491432173931,-7, -6, -2, 6, -3, 2, 0, -11
1491432173937,3, 3, -2, -2, -2, 0, -1, -4
1491432173938,-1, -1, 2, 6, -2, 0, -2, 2
1491432173946,-9, -5, -1, -4, -3, -1, -5, -8
1491432173960,-9, -4, 1, 8, 2, -1, -3, 0
1491432173968,2, -3, 0, -9, -2, -2, -7, 15
1491432173975,7, -3, -2, -6, -1, 0, 3, 1
1491432173991,4, 4, -1, -3, -1, -1, -3, -14
1491432173997,-1, 0, 1, -1, -1, -2, -4, -2
1491432174006,-3, -2, 2, -3, -1, -2, -2, -4
1491432174020,-11, 2, 0, 1, 0, 0, 0, 1
1491432174028,-3, -6, -5, 4, -3, -4, -3, 0
1491432174035,-15, 3, -4, -2, -1, 0, -1, -6
1491432174051,8, 5, -2, 7, 2, 1, 1, 1
1491432174058,14, 0, -2, 22, 5, 3, -9, 1
1491432174066,-2, 1, -1, 12, -4, -4, 0, -3
1491432174081,-3, 4, 0, -6, -3, -2, 1, 2
1491432174088,-3, 0, 3, 4, -2, 1, -2, -4
1491432174104,1, 0, 2, -3, -4, 1, 2, -1
1491432174111,-3, 2, 3, 0, -1, -1, -2, 0
1491432174119,7, 2, 2, -2, 1, -2, 1, -3
1491432174126,9, 2, -2, -3, 0, 0, -1, 2
1491432174142,1, -2, 0, -10, -5, 0, -1, -1
1491432174148,-19, -4, 1, -4, 2, -2, -1, -5
1491432174164,-7, -3, -3, -5, -3, -2, -3, -2
1491432174171,-2, -2, -4, -2, -2, -1, 0, -3
1491432174179,2, -4, -4, 0, 2, -1, -1, 0
1491432174186,6, -5, -4, -6, 0, 2, 3, 4
1491432174201,-2, -2, -2, -4, -6, -4, -1, -4
1491432174209,0, 3, -2, -5, 0, 0, -1, 1
1491432174224,-6, 3, 3, 7, 3, 0, 0, 3
1491432174231,4, 0, -1, 6, 3, 1, -2, -1
1491432174239,6, 5, -2, -9, -4, -2, -5, -3
1491432174246,-2, 7, 4, 2, -1, 1, -2, -2
1491432174261,8, -1, 0, 2, 2, -1, 1, 4
1491432174268,-1, -2, -1, -5, 0, 0, 0, 0
1491432174284,-5, -3, -1, 1, -3, -1, 1, -4
1491432174291,2, 0, 1, -3, -1, -2, -3, 2
1491432174299,0, 0, -3, -7, -1, 0, 3, 4
1491432174307,5, 0, 0, -1, -1, 0, -1, 0
1491432174321,-4, 4, -1, -3, -4, -2, -2, -3
1491432174328,-3, -5, 1, -9, -5, -1, 1, 1
1491432174329,4, -5, -2, 3, 0, -2, -3, -2
1491432174344,-6, -9, -2, 2, -2, 0, 1, -1
1491432174351,-6, -2, 1, 0, -1, 0, 0, 0
1491432174359,-5, -4, 2, 1, 0, -1, 1, 0
1491432174366,1, -6, -3, -7, -2, -2, 2, -1
1491432174381,-6, -2, 2, 2, -3, -3, -2, 2
1491432174388,0, 5, -1, -8, -4, -2, -1, 0
1491432174404,-1, 4, -3, -8, 0, -1, -3, -2
1491432174417,-6, 4, -2, -3, -2, -1, -2, 3
1491432174419,4, -1, -2, -1, 0, 0, 1, 0
1491432174426,1, 3, 2, 4, 2, 1, 2, -2
1491432174441,0, -1, 0, -3, 2, 0, 0, -3
1491432174448,1, 0, -4, -1, -1, -1, -3, -1
1491432174465,-5, -3, -1, 11, 1, -1, -5, -4
1491432174471,-2, 0, 1, 2, -2, 0, -1, -2
1491432174479,-9, -3, -4, 2, -1, 0, -1, -3
1491432174493,-4, 3, -1, 1, 1, 0, 0, -3
1491432174501,-2, 2, 3, 3, 1, -2, 0, 2
1491432174508,1, -3, -2, -2, -4, -4, -2, 1
1491432174524,5, -1, -4, -10, -4, -1, 0, 0
1491432174531,-3, -3, -3, 0, -1, -2, -2, -4
1491432174539,-2, -3, 0, -6, -5, 1, -2, 1
1491432174553,2, -4, 1, -5, -2, -1, -1, 0
1491432174561,0, -1, 0, 6, 1, -2, 2, 1
1491432174568,2, 1, 0, 4, 1, 0, 0, 1
1491432174584,19, 4, 1, 4, -3, 1, -3, 1
1491432174591,-2, 3, 0, -4, -2, -1, 0, 1
1491432174592,-8, -8, -2, -3, -1, -1, 0, 0
1491432174599,5, 0, -2, 1, 3, 0, 1, -5
1491432174600,-6, -4, -2, -4, -2, -3, 0, 0
1491432174613,2, -7, -5, -1, 2, -2, 0, -5
1491432174621,6, 2, 0, -5, 2, 0, -2, 0
1491432174629,-3, -3, 1, -3, -3, 1, -2, -2
1491432174644,-6, -6, -1, -6, -1, -2, -1, -3
1491432174651,1, 5, -2, 2, -4, -1, -2, -2
1491432174659,-2, -6, -2, 0, 2, -3, -2, 4
1491432174673,0, 7, 1, -3, -1, -2, 0, -4
1491432174674,-1, 1, -3, -3, -1, -2, 1, 0
1491432174681,-8, -2, -3, 5, 0, 0, -2, -6
1491432174688,-7, -4, -2, -3, -3, -2, -3, -4
1491432174704,1, 5, -1, -6, -3, 2, 1, 0
1491432174711,-4, -6, -3, -1, -1, 0, -1, -2
1491432174719,-2, 0, 0, -3, -2, -2, -3, -4
1491432174733,4, 2, -2, -5, -1, -1, -3, 2
1491432174741,-6, 0, -2, 3, 1, 0, -2, -5
1491432174748,-1, 1, 3, 11, 3, -1, 1, -2
1491432174764,-6, -4, -2, 6, -2, -2, 1, -1
1491432174771,2, -1, 1, 1, 2, -2, 0, 4
1491432174779,4, 5, -2, -3, -2, 0, -1, 3
1491432174793,3, -4, -4, -6, -1, 0, 0, -3
1491432174802,7, -5, 0, -2, 2, -3, -1, 0
1491432174816,8, 3, 0, -8, -3, -4, -1, 1
1491432174824,2, 1, 3, 8, 2, 1, -3, -2
1491432174831,9, 0, 5, 4, 1, -1, -1, -2
1491432174840,-6, -3, -1, -3, 0, 0, 0, 1
1491432174854,-10, 4, -2, 5, -4, -2, -2, -5
1491432174861,1, 5, 1, 4, 2, 2, 1, -3
1491432174868,8, -4, -5, -3, -1, -2, 2, 2
1491432174884,-2, 5, -2, 6, -1, 0, 1, -3
1491432174891,-8, -2, -2, -2, -2, 0, 2, 0
1491432174899,-2, 1, -2, -2, 0, 0, 1, 3
1491432174914,7, 3, 0, -1, 1, -2, -4, 0
1491432174921,-13, -2, -3, -8, -2, 0, -1, -4
1491432174928,5, 9, 1, 0, 1, 1, -1, 1
1491432174943,5, -1, 0, -6, -1, 0, -1, 0
1491432174950,11, 2, 0, 20, 2, 0, -4, -4
1491432174951,-14, -3, -2, -6, -4, 0, -1, -4
1491432174958,6, -4, -5, 2, 2, -1, 0, 0
1491432174959,-3, -10, -2, -5, -2, -1, 2, 2
1491432174973,0, -5, 2, 4, 2, -1, -1, 0
1491432174981,-6, -7, -1, 0, -2, -3, -4, -2
1491432174988,-1, -1, -3, -2, -3, -1, 0, 1
1491432175004,-1, -1, 0, 1, -2, -2, -2, -3
1491432175011,-1, 1, 0, -1, -2, 3, 1, -2
1491432175019,4, 0, -5, -1, 1, 0, -2, -4
1491432175033,3, -2, -2, 1, -4, -2, -1, 3
1491432175041,5, 4, 0, -1, -4, 0, -3, 0
1491432175049,-3, -1, -3, 7, 4, -1, -1, 4
1491432175064,-1, -5, -2, 0, -1, -1, -1, -2
1491432175071,-2, 1, 1, -5, -1, 1, -1, -2
1491432175079,-1, 1, 1, -2, -2, -2, -1, -2
1491432175094,-5, 1, -2, -2, 1, 0, -1, -3
1491432175108,-5, -2, -1, 0, -1, -3, 1, -1
1491432175110,5, -4, -1, -1, 0, 0, 0, 2
1491432175124,2, 4, 1, -5, 1, -1, 1, 0
1491432175131,-16, -3, -1, -1, 0, -2, 1, -3
1491432175139,10, 7, -3, -1, -1, 0, 0, 4
1491432175153,2, -5, 0, -1, -2, -3, -2, -2
1491432175161,-2, 4, -2, 1, 0, -1, -1, 0
1491432175168,-16, 0, -1, -1, 0, 0, 0, -3
1491432175184,-6, -3, -3, 3, 2, 1, -1, -2
1491432175191,5, 2, 0, -3, -2, -1, -3, -2
1491432175199,4, 1, -2, 1, -2, -3, -1, -3
1491432175213,0, 5, -3, 1, -4, -1, -1, -1
1491432175221,3, 1, -3, -1, -3, 0, -1, -4
1491432175236,3, -2, 0, -2, 0, -1, 0, 0
1491432175244,-5, 4, 0, 0, 0, 0, -1, 2
1491432175251,20, -6, -3, -2, -1, -1, -1, 1
1491432175259,-4, 1, 2, -1, -1, -1, 2, -3
1491432175274,-9, 2, 1, 3, -2, 0, 0, -6
1491432175281,-5, -2, -2, -3, -1, -2, -2, 1
1491432175288,17, 4, -2, -6, -1, 1, 1, 7
1491432175304,-9, -2, -2, 3, -1, 2, -3, 0
1491432175311,-2, -1, 0, -2, 1, 0, 0, -3
1491432175319,-5, -9, 0, -2, -2, -2, 0, 1
1491432175333,16, 6, 2, 2, -1, 0, -2, 0
1491432175341,14, 2, -2, -2, 0, -2, -2, 2
1491432175348,1, -1, -2, 1, -2, -3, -1, 0
1491432175364,-10, -4, -2, 2, -1, -1, 0, 0
1491432175377,-15, 0, -3, -6, 0, -1, 3, -2
1491432175379,1, -3, 0, -5, -2, -1, 0, 1
1491432175393,-13, -5, -1, 1, -2, 1, -3, -1
1491432175401,1, -6, -1, 1, 0, -2, -2, -4
1491432175408,0, 0, -1, 1, -1, -2, -1, -2
1491432175424,0, 4, 4, -1, -3, -2, -1, -1
1491432175431,4, -6, -1, -3, -1, 0, -2, -1
1491432175446,0, -1, 2, 0, 1, 1, -2, -1
1491432175453,-1, -1, -2, -1, 1, -1, -3, 0
1491432175469,-4, -1, 0, -1, -2, 0, -2, -1
1491432175476,9, 1, 1, 0, -1, 1, 0, 1
1491432175484,-3, -3, -1, 0, -1, 2, 2, 1
1491432175490,-1, 0, -2, 0, -3, 1, -5, -2
1491432175491,4, 9, 1, 2, 1, -1, 2, 0
1491432175506,3, -1, 0, 2, -1, 1, 1, -2
1491432175514,-10, -11, -4, -1, 0, -2, -5, -6
1491432175522,-2, 4, 0, 0, -1, -1, -2, -2
1491432175536,19, -1, 3, 2, 1, -1, 1, -2
1491432175544,0, -1, -3, -2, -4, -3, -4, -5
1491432175551,-14, 2, -1, -2, -3, -2, -1, -2
1491432175572,6, -2, -1, -1, 1, 0, -2, -2
1491432175574,-4, -1, -1, -1, -3, -1, -1, -2
1491432175581,-4, 1, -4, 0, -1, -1, -1, 3
1491432175596,-17, -1, -1, -3, -3, -2, 1, 0
1491432175604,-4, -4, 2, -2, -1, -2, 0, -4
1491432175611,-9, -1, -3, -1, 0, -1, -1, -3
1491432175626,3, -1, -5, 0, 0, 0, 2, -2
1491432175633,-2, 6, -2, -4, -1, -4, -2, 1
1491432175641,5, 1, -3, -4, 0, -1, 0, 0
1491432175656,-2, 3, -3, 0, -2, 1, -2, -2
1491432175664,-1, 3, -1, -1, -1, -1, 1, 2
1491432175671,5, 0, 2, 1, 2, 0, -1, 0
1491432175686,3, 3, -4, 1, -1, -2, 0, -1
1491432175694,-2, -3, -3, -2, -3, -1, 0, -2
1491432175701,7, 0, 2, 0, 2, 0, -1, 2
1491432175716,2, 0, 2, 2, -2, 0, 0, -2
1491432175724,-5, 3, -2, 0, -1, 0, -2, -2
1491432175731,-1, 1, 2, -5, -1, -1, -1, 0
1491432175745,3, -2, 2, -3, 1, 0, 0, -3
1491432175746,4, -2, -2, -2, -3, -1, 1, 5
1491432175753,-1, -4, -3, 0, -1, -2, 0, 0
1491432175761,-11, -1, 1, 0, 0, 0, -3, -7
1491432175776,0, -5, 1, 0, 3, 2, 0, 0
1491432175784,-3, -7, 2, -2, -1, -3, -2, -4
1491432175791,1, 1, -2, -3, -4, -4, -3, 3
1491432175806,0, -2, 2, -4, -3, -1, -8, -14
1491432175813,-10, -3, -2, 1, 0, 1, -8, -8
1491432175821,9, -3, -1, 0, 0, -2, -2, -4
1491432175836,-6, -2, -3, -1, -2, 0, 6, -1
1491432175845,1, 0, -1, -2, 1, 0, 2, 5
1491432175852,1, -2, -2, 2, 1, -3, -9, -10
1491432175866,-3, 0, 0, 0, -1, 0, 1, 6
1491432175873,1, -3, 1, -2, -1, -1, 2, 3
1491432175881,-6, -7, -6, 2, 0, -2, -6, -19
1491432175896,2, 1, -3, 1, -2, -2, 0, -6
1491432175904,-2, 1, 4, -2, 2, 1, 4, 4
1491432175910,-5, 0, -1, -1, -3, -1, 3, 4
1491432175925,-2, 1, 1, -4, -4, -1, 1, 1
1491432175926,0, -4, -2, 0, 0, -1, 2, -9
1491432175933,3, 2, 1, 0, 1, 1, 2, 5
1491432175942,-7, 0, -3, 1, -4, -3, -6, -6
1491432175943,-18, -3, -2, -2, -2, -1, 5, 6
1491432175955,17, -1, -2, -3, -1, -1, -3, 0
1491432175956,-1, -2, 2, -1, -2, -1, 3, -3
1491432175963,4, -1, -1, -1, 2, 0, -6, -8
1491432175964,-1, -3, -2, -1, -3, -3, 1, 6
1491432175970,5, -4, -1, -3, -1, -2, -2, 1
1491432175986,-2, 5, -4, -1, -1, 3, 5, 7
1491432175993,16, 10, -1, 0, -2, 0, 3, 2
1491432176001,4, 5, -2, 1, -1, -1, -2, 12
1491432176016,-2, 4, -3, 1, 0, -2, -2, 16
1491432176024,7, 8, 0, 0, -1, 3, -2, 15
1491432176031,5, 9, 4, 2, -1, 0, -2, -4
1491432176045,1, -3, -1, -2, -1, -4, -5, -15
1491432176053,-2, -4, -3, -4, 2, 2, -5, -5
1491432176061,5, 4, 1, 2, 1, -1, 0, -10
1491432176076,-13, -4, -1, -1, -1, 0, -3, 14
1491432176084,-12, -4, 1, -2, -2, -4, -3, -5
1491432176091,0, 0, 0, 2, 1, -2, 1, -6
1491432176106,4, -5, 0, -2, -3, -3, -7, 7
1491432176113,-1, 2, 0, -3, -1, 0, -4, -13
1491432176121,-2, 6, 0, -2, 0, 1, 3, 11
1491432176136,-8, -8, -5, -3, -2, 1, 8, 3
1491432176144,-4, -5, -2, 1, -3, -1, 2, -19
1491432176152,0, -3, -1, 0, 1, -4, 1, -16
1491432176166,-4, -3, -3, -2, 2, 0, -3, -7
1491432176173,0, 0, -1, -1, -2, 1, -8, -3
1491432176181,0, -2, -1, 0, -1, -2, -1, 2
1491432176196,-4, -5, -3, -4, 0, 1, 5, 10
1491432176203,0, 2, -2, -1, 1, -1, 0, -3
1491432176204,8, 4, 0, 0, -2, 4, 0, -2
1491432176211,-1, -1, -1, 1, -2, 0, 0, 2
1491432176227,15, -4, 1, -2, 2, -1, 6, 7
1491432176233,0, -1, -3, -3, 1, -1, -4, -7
1491432176241,-7, 0, -2, 1, 0, -1, -4, -2
1491432176256,-3, 7, 0, 1, -2, -1, -9, -7
1491432176264,1, 3, -2, -1, -3, -3, -13, -3
1491432176271,-3, -6, -2, 2, 0, 1, 0, 2
1491432176286,-5, 3, -2, 0, 1, 1, 3, -4
1491432176293,0, -1, 1, -1, -2, 0, 0, 6
1491432176301,0, 6, 1, -1, 1, -1, 3, -16
1491432176316,-3, 0, 0, 0, 0, -3, 1, -5
1491432176324,-8, -1, -2, -2, -4, -1, -2, 13
1491432176331,14, 5, 2, -1, -4, -3, -6, 2
1491432176346,-4, -4, 5, -1, 2, -2, -2, 0
1491432176354,-2, -1, -4, -2, 1, -1, 2, 1
1491432176368,-2, 1, 0, -1, -2, 1, 2, -7
1491432176382,-3, -4, 2, 3, 2, 0, 5, 1
1491432176384,1, -6, -5, -5, 0, -1, 6, -3
1491432176397,3, -1, -4, -1, -3, -1, -2, -7
1491432176406,9, 2, 2, -1, 0, 0, 6, 8
1491432176413,-6, 2, -1, -2, 2, 1, -3, -2
1491432176428,1, 3, 1, 0, -1, -4, -11, 1
1491432176437,-7, -2, 0, 4, -4, 1, 0, 0
1491432176444,-8, -2, 0, -2, -3, 0, -1, -3
1491432176457,-3, -2, -3, -3, -1, -5, -9, -22
1491432176465,2, 1, -1, -1, -4, -3, -8, -5
1491432176473,3, 6, 2, -3, -2, -1, 4, 0
1491432176488,-12, 7, 0, 0, 3, 0, 4, 7
1491432176496,-17, -4, 0, 0, 0, 1, 1, -7
1491432176503,5, 3, 2, 0, 1, 1, 0, 11
1491432176504,3, -1, -5, 3, 0, 0, -2, -2
1491432176517,-3, -1, 0, -3, -1, -1, 5, 5
1491432176526,-6, -3, -4, -1, 2, 2, -2, -2
1491432176533,-3, 2, 1, -2, 0, 2, 0, 3
1491432176534,6, -2, 1, -1, 2, -1, 0, 7
1491432176548,0, 3, 5, 1, -1, -4, -3, 5
1491432176555,-5, 0, -3, 1, -2, 0, -4, -7
1491432176556,2, -1, 0, 0, -1, 0, 1, 10
1491432176563,-5, 1, -2, 1, -2, -5, -7, -19
1491432176564,6, -2, 0, -3, 0, 2, 3, -4
1491432176577,-1, -4, 0, -2, 2, 2, -14, 3
1491432176585,4, -4, -3, -1, -2, 0, -7, 1
1491432176593,9, -4, -3, -3, -1, 1, 4, 9
1491432176608,-6, -6, -3, -3, -2, 0, 4, 4
1491432176616,-6, 5, 1, 2, -2, -3, -7, -4
1491432176623,1, -3, -1, -2, 1, -1, -1, -1
1491432176624,-2, 3, 2, 0, 4, 0, -2, -4
1491432176637,-5, -6, 1, -3, -2, 0, 8, -1
1491432176646,-4, -3, -3, 1, -4, -2, 2, -4
1491432176653,2, 0, -2, -2, 0, -1, 4, -1
1491432176668,-5, -5, 0, -1, -1, -2, -5, -9
1491432176675,-3, 5, 1, 0, -1, -1, 0, -3
1491432176684,0, 1, -4, -3, -3, -2, -7, 5
1491432176698,-1, 0, -1, 1, 2, -2, 0, 10
1491432176706,3, -7, -6, -2, -2, -1, 3, 12
1491432176713,-4, -5, -4, 0, 0, -1, -8, 13
1491432176728,-6, -8, 1, -4, -3, -5, 6, -1
1491432176736,-1, 0, -2, 0, 2, 3, -9, -22
1491432176744,0, 0, -3, 2, 0, 4, 6, -11
1491432176757,0, 5, -2, -3, -2, -5, 4, -15
1491432176765,-6, 2, 0, 1, -1, -1, -4, -15
1491432176773,0, 1, -5, -2, -3, -1, 2, 12
1491432176788,2, 0, -1, -2, -2, -4, 0, -12
1491432176796,9, 0, 0, 3, 1, -4, -16, -21
1491432176803,-6, -1, 0, 0, -2, -1, -4, 13
1491432176817,-1, -7, 2, -2, -1, -2, -1, 10
1491432176826,4, 3, 1, -1, 0, 2, -1, 4
1491432176833,-3, 1, -3, 0, 0, -1, 0, -17
1491432176848,8, 5, -1, -5, 0, 2, -4, -10
1491432176856,-2, -4, -2, -3, -5, -1, -4, 11
1491432176864,-3, 3, 2, 2, -1, 0, 5, 5
1491432176877,-1, 0, -3, -1, 0, -4, -12, -1
1491432176885,-3, -3, 2, -3, -4, -3, 1, 14
1491432176893,1, -6, 3, 1, -4, 1, -7, 14
1491432176908,3, -2, -3, -1, 2, 1, 10, 3
1491432176916,4, 2, -4, 0, 5, 4, 13, 8
1491432176931,9, -1, 0, -1, 1, -2, 7, -15
1491432176937,10, -3, -2, -4, -1, -1, 0, 0
1491432176945,14, 0, -3, 1, 3, -3, -4, 10
1491432176953,-5, 2, -2, 0, 0, 2, 2, -11
1491432176968,-7, 0, -1, 0, -2, -4, -9, 6
1491432176975,1, 2, 3, -3, -4, -4, 2, 15
1491432176983,-6, 0, -1, 1, 2, 1, -14, -18
1491432176997,-3, -4, 2, -2, -1, 0, 6, -34
1491432177006,20, -4, -4, 0, -1, 1, -2, -18
1491432177013,6, 9, 4, 2, 1, -1, -2, -12
1491432177028,-10, -4, 1, -3, 1, -2, 11, -23
1491432177036,5, -1, -3, 0, 2, -2, 9, 3
1491432177043,-2, 2, 5, -1, -2, -3, 3, 6
1491432177057,-6, -3, -1, -1, -1, 1, 0, 10
1491432177068,-8, 1, -4, 0, -2, 0, 2, 11
1491432177073,7, 1, 1, -3, -4, 0, -3, 9
1491432177088,-13, 1, -2, -3, 0, 1, 8, 7
1491432177095,-8, -2, 0, -1, -1, 0, 3, -5
1491432177103,-1, -1, 0, -2, -2, 0, 1, -4
1491432177104,2, 2, 2, 0, 0, -2, -11, 8
1491432177117,-7, -2, -6, 0, 2, -1, 1, 2
1491432177126,-3, 2, -3, 2, 0, 2, -13, 2
1491432177133,-11, 0, 0, -1, -5, -4, -3, -9
1491432177148,-10, -1, -4, 0, -2, -5, -23, -7
1491432177155,19, 1, -1, 0, 0, 0, -12, 6
1491432177156,3, -1, -3, -3, -2, -3, -5, -6
1491432177163,6, -2, 1, -1, 0, 4, 12, 22
1491432177177,0, -5, -3, 1, 0, 1, 2, -3
1491432177185,0, -2, 0, -2, -1, -1, -4, 0
1491432177193,-2, -1, 0, -1, 0, 2, 6, 0
1491432177208,-2, 0, 0, -1, 2, -1, -6, -16
1491432177215,-2, 0, -2, -2, -2, -2, 1, 0
1491432177223,-7, -4, -3, -3, -2, -1, -20, -3
1491432177224,1, -1, -1, -1, -3, 2, 13, 9
1491432177237,-7, -3, 1, -1, 1, 1, 3, 7
1491432177246,-5, -4, 2, 0, 0, -3, -1, 5
1491432177253,-9, 1, 2, 0, 0, 0, -3, -1
1491432177268,-4, -1, 0, -1, 2, 0, -5, -12
1491432177276,2, 2, -1, 0, 1, -2, -15, -4
1491432177291,1, -1, -3, -2, 1, -2, 1, -2
1491432177297,8, -3, -4, -6, -5, 0, 2, 0
1491432177305,33, 0, -2, -1, -3, -2, 2, 8
1491432177320,-4, -5, -2, -1, 2, -1, -1, -7
1491432177329,-10, -6, -4, -6, -10, -5, -1, -12
1491432177342,2, 1, 2, 0, -1, -3, 2, -2
1491432177351,-2, 1, -2, 1, -1, -2, 1, 2
1491432177359,1, -1, -3, -3, -7, -6, -5, 1
1491432177366,-4, -1, -2, 1, 1, 3, -9, -10
1491432177380,-19, -1, -1, -1, -3, -3, -7, -4
1491432177388,-16, -3, -1, -2, 6, 4, 5, 10
1491432177395,0, -3, -2, -1, 0, -1, 15, 2
1491432177396,3, 4, 1, -6, -9, -11, -21, 3
1491432177412,2, -3, -1, 2, 1, -1, -21, -2
1491432177418,3, -1, -1, 3, 5, 4, 14, 3
1491432177426,1, -1, 2, -2, -1, -2, 11, 0
1491432177440,5, -3, -1, -1, 2, 2, 0, 1
1491432177449,-3, 0, -4, 3, -1, 1, 5, -6
1491432177456,4, 0, -2, 2, 2, 1, 10, -2
1491432177471,3, 1, 1, 0, -2, 0, 0, 4
1491432177477,-1, 6, 0, 2, 3, 0, 1, -3
1491432177488,12, 0, 1, -1, -1, -1, 7, 1
1491432177500,17, 6, 1, 0, 0, 2, -4, -1
1491432177508,-8, 2, -1, -6, -10, -5, -8, -7
1491432177516,-5, -3, 0, 0, 2, 4, 1, -2
1491432177531,-7, -2, -5, 1, 2, 1, 0, -1
1491432177538,24, 7, 2, -1, -2, 0, 2, 0
1491432177553,-1, -3, -3, 0, 3, -1, 15, 2
1491432177560,-9, -1, 1, -5, -9, -5, -4, -4
1491432177568,6, -2, -2, 1, 2, -2, -2, 3
1491432177576,3, -5, -4, -1, 5, 1, -1, -3
1491432177591,-7, 1, 6, -2, -4, -3, 3, 1
1491432177597,-5, -3, 2, 0, -4, 1, -7, 1
1491432177605,1, -3, -3, -3, -1, -1, -6, 1
1491432177606,-9, 1, 0, 4, 10, 8, 0, -5
1491432177620,9, 1, -4, -4, -2, -2, -3, 13
1491432177628,-4, -6, 1, 0, 1, 0, -4, 0
1491432177635,-5, -4, 1, 0, 1, 1, -3, -6
1491432177636,3, 0, 0, 2, 2, -1, 4, -8
1491432177657,1, 5, -1, -1, -2, -4, -8, -3
1491432177658,-14, -3, -2, -1, -3, -4, -1, -7
1491432177673,-42, 3, 0, 2, -7, -5, 1, -2
1491432177680,-10, 3, -1, -1, -1, -2, -6, 0
1491432177688,10, -2, 1, 0, 1, 3, 2, -1
1491432177689,-3, -1, -3, -3, -4, -2, 15, -2
1491432177696,-26, -5, 0, 2, 0, 7, 24, -8
1491432177711,11, 1, 2, 1, 2, -1, 3, 4
1491432177717,-4, -6, -3, -5, -2, -2, 1, -2
1491432177725,22, 4, -2, 0, 3, -3, 2, -6
1491432177726,2, -2, -4, -5, -1, 2, -5, 0
1491432177740,4, 2, -2, 1, -1, -2, -5, 8
1491432177749,18, 0, -3, 1, -1, 1, -11, -4
1491432177756,-14, -6, -4, -4, -5, -2, -9, -5
1491432177771,4, 1, 0, -1, -4, -4, -3, -4
1491432177777,3, 1, 4, 0, 1, -2, 0, 1
1491432177786,3, 1, 1, 0, 0, 3, 1, -3
1491432177800,-4, -4, -1, 0, 0, -3, 0, 1
1491432177808,-1, 0, 3, -6, -8, -8, -6, -6
1491432177815,-7, -10, -4, 0, -2, 1, -10, -14
1491432177816,2, -1, -2, 3, 6, 2, 4, 4
1491432177831,8, -2, -1, -2, -1, -2, -2, 4
1491432177837,0, 2, -4, 1, -2, -2, -4, -3
1491432177845,-6, -2, 5, -2, -3, 2, 2, -5
1491432177846,7, -3, -3, 0, 2, 1, 1, 2
1491432177860,7, 3, -1, -2, -6, -4, -3, 2
1491432177868,3, -4, 0, 0, 0, 1, -2, 0
1491432177876,7, 6, 3, 1, 1, 3, 1, 0
1491432177891,-3, 4, -1, 1, 3, 2, 6, 1
1491432177897,-13, 4, 3, 1, 3, 4, -4, -5
1491432177910,12, 20, 3, 2, 3, 1, -1, 2
1491432177920,-1, -12, -3, -7, -4, -1, -6, -9
1491432177928,-14, -3, -2, -1, -2, -2, -3, -7
1491432177936,-2, -7, -6, -1, -1, -1, -2, -3
1491432177951,16, -4, 3, 0, -1, 0, -3, 2
1491432177957,-2, 1, -1, -3, -5, -5, -1, 2
1491432177966,0, -8, 1, 1, -2, -3, -2, 1
1491432177980,17, 3, -3, 2, -1, -2, 0, 6
1491432177989,-10, -4, -5, -2, -3, 0, -2, -6
1491432177996,21, 1, 4, 1, 0, 4, 2, 3
1491432178011,-13, -7, -3, -3, -1, -5, -9, -2
1491432178018,2, 4, 0, 0, 0, 2, 4, 5
1491432178026,-2, 1, -2, -2, 0, 0, 14, 2
1491432178040,-4, -2, 1, 1, 3, -5, -22, -6
1491432178041,-6, -7, -1, -2, -2, -2, 1, 1
1491432178048,1, -4, -5, -3, 2, 2, -1, 2
1491432178056,-9, -1, 0, -5, -3, 2, -2, 0
1491432178071,-2, 0, -4, -1, -5, -2, -6, -6
1491432178078,-7, -2, -3, 0, 3, 3, 2, 0
1491432178086,-11, -14, -9, -5, -3, -1, 3, 3
1491432178100,-2, -3, -4, -2, 0, -2, -17, 8
1491432178109,-6, -5, -1, -1, 2, -2, -2, -2
1491432178116,-4, 0, -1, 4, 2, -1, 6, -3
1491432178131,3, 10, 6, 0, 3, 2, -8, -5
1491432178138,-10, 0, 0, -3, -6, -7, -6, -9
1491432178146,4, 4, 2, 2, 2, 0, 1, -4
1491432178160,3, 11, 3, 3, 4, 1, 1, -2
1491432178168,-6, -1, 4, -2, -4, -4, -6, -3
1491432178176,11, -3, -2, -2, 1, -1, 1, 0
1491432178191,-6, 1, 3, 0, 5, 2, -2, 2
1491432178198,3, 7, 3, -1, -5, 0, 4, -2
1491432178199,0, 4, 1, -1, 1, 0, 4, -2
1491432178207,-5, -4, -4, 1, -1, -2, -2, -1
1491432178220,0, -2, -1, 0, 0, 3, -1, -2
1491432178228,18, 4, 0, 3, -1, 1, 2, 10
1491432178242,0, -3, 1, 4, 1, -2, -4, 12
1491432178243,-6, 2, 3, 1, -3, -1, -3, 14
1491432178251,1, -7, -2, -3, -4, 1, 2, 12
1491432178258,8, -3, -3, -1, 5, 3, -1, 1
1491432178273,0, 6, 4, -2, -4, -2, -3, 3
1491432178280,-14, -7, 3, 3, -2, -1, -1, -11
1491432178288,-8, 0, -6, -9, -5, -2, 0, -15
1491432178302,2, 0, 0, -1, -3, -3, -3, -18
1491432178303,-5, -3, 0, -2, -3, -2, -1, -44
1491432178311,-4, -6, -6, 3, 0, -1, 1, -111
1491432178318,3, 1, -2, -4, -4, -6, -1, -4
1491432178334,0, 1, -2, 2, -1, 3, 0, 60
1491432178340,9, -1, -1, 4, -4, -4, -4, 61
1491432178348,-2, 2, -2, 0, -3, -4, -1, 33
1491432178362,1, 2, -4, 3, -4, -2, 0, -19
1491432178371,3, -2, -5, 0, -1, 0, -1, -10
1491432178379,-2, 4, -2, -4, -2, -3, -1, -11
1491432178395,2, -1, 2, 1, -1, -1, -2, -4
1491432178400,-6, -9, 0, -1, 7, 2, 1, 5
1491432178410,16, 1, 2, 1, 0, -1, -1, 12
1491432178422,-12, -1, -2, -1, -9, 2, 3, -15
1491432178431,10, 7, 0, -1, -3, -4, 3, 5
1491432178438,-3, 1, -3, -4, 2, 4, 0, 13
1491432178453,-7, 4, 1, 3, 6, 6, 0, 0
1491432178460,0, -1, -6, 1, 6, -1, -4, -3
1491432178468,0, -2, -4, -1, 2, -2, -5, 1
1491432178482,1, 10, 5, 6, 4, 1, 1, -4
1491432178491,3, -3, 2, -1, -1, -1, 2, 2
1491432178492,-2, -2, 0, -1, -5, -2, 1, -1
1491432178498,-7, -4, 4, -1, -3, -4, -1, 7
1491432178513,-10, -3, 3, 2, 2, -3, -4, -2
1491432178520,-1, -4, 1, -6, -8, -6, -3, -3
1491432178530,-6, -7, -4, -3, 1, -1, -1, -2
1491432178543,28, 2, -3, -4, -2, -3, -3, -3
1491432178550,-7, 1, -2, -2, 4, 1, -4, -5
1491432178551,-7, 7, 2, 0, -1, -2, -1, -1
1491432178558,-5, -8, -4, 3, -5, -4, -1, -3
1491432178573,-1, -2, -3, -2, -9, -3, -2, -4
1491432178580,-8, -3, -2, 1, 5, 2, -2, -4
1491432178588,-6, -5, 4, -1, -2, -6, -1, 6
1491432178602,-10, -1, 6, 3, 5, -2, -3, -5
1491432178610,7, -2, -9, -7, 3, 0, -2, -7
1491432178619,6, -14, -12, -3, 1, 0, -1, -1
1491432178633,4, -4, -5, 0, 0, 1, 1, 4
1491432178640,8, -1, 1, -1, 2, 1, 5, 1
1491432178649,-4, 1, 1, -1, 0, 0, -1, 4
1491432178662,-5, 18, 2, -4, -1, 1, 0, -9
1491432178670,-14, -7, 9, -1, -5, 2, 0, 1
1491432178678,-3, -7, 0, -5, -16, -12, -9, 12
1491432178700,0, 0, -11, -1, 1, 1, 1, 1
1491432178702,9, -9, -8, -3, 3, 4, 3, -3
1491432178708,4, 5, -1, -4, -6, -3, -1, -7
1491432178722,-3, 5, -1, 3, -1, 0, -1, 0
1491432178731,17, 4, -3, 3, 2, 1, 0, 1
1491432178738,3, 6, 6, 0, 0, 1, -3, 3
1491432178753,-13, -6, -1, -4, 2, 3, -5, -1
1491432178760,-15, -2, -1, 3, -1, 1, 4, -5
1491432178768,-5, 2, 5, 0, -4, 1, 7, -2
1491432178782,-2, -6, -2, 0, 4, -2, 1, -5
1491432178790,-1, -4, 0, 0, -4, -2, 1, 0
1491432178791,9, -5, -3, 12, 4, 0, 0, 0
1491432178798,13, 6, 1, -5, -1, -1, -2, 2
1491432178813,-11, -7, -3, -5, -3, -7, -9, -10
1491432178820,-7, -1, 1, -1, 0, 1, -2, -4
1491432178828,-11, 1, -5, 1, 0, 0, 0, -6
1491432178842,-10, -2, -4, -3, 1, 1, 3, 1
1491432178850,-2, 3, 2, -3, 0, -3, 6, -2
1491432178858,-1, -3, 0, 1, 4, 0, 3, 0
1491432178873,0, -2, 2, 0, 0, -1, 0, 11
1491432178880,1, -4, 0, -1, -5, -2, -7, -3
1491432178888,2, 7, 3, -1, -1, -2, 0, -5
1491432178902,0, 3, 1, 0, -4, -1, -2, 1
1491432178910,-2, 0, -1, 1, 3, -2, -1, -4
1491432178911,-1, -3, -2, -3, -2, 0, 0, -3
1491432178918,-6, -2, 1, 1, 0, 0, 0, -1
1491432178940,-1, -1, -5, -1, 1, 1, 3, 4
1491432178955,3, -2, -1, -2, 3, 4, 6, 3
1491432178963,-5, 2, -3, -1, -2, 3, 3, -5
1491432178970,1, -4, -4, -3, -5, -1, -7, 29
1491432178971,-2, 9, 0, 0, -1, 1, 4, 0
1491432178978,-1, 4, 1, 1, -1, 0, 5, 30
1491432178993,2, -1, -2, 0, -3, -4, -4, -3
1491432179001,2, -1, -1, 0, -1, -2, 0, -14
1491432179015,-1, 4, -1, -2, 3, 0, -6, -6
1491432179016,4, -1, 0, -1, -3, 2, 7, 5
1491432179023,-2, 1, -2, 1, 0, 0, -6, -1
1491432179024,3, -1, -1, 0, -3, -2, 0, -1
1491432179030,0, 1, 3, 2, -1, -4, 0, 14
1491432179047,-1, 3, -3, -2, -1, -5, -6, -4
1491432179053,-3, 1, 0, 1, -2, -2, -2, -19
1491432179061,4, 2, 2, -2, 15, 3, -1, -4
1491432179068,-4, -3, 0, -1, -10, -6, -13, -8
1491432179083,-4, -3, -4, 1, 7, -1, -11, -1
1491432179084,-7, -2, -3, -3, -10, -3, 0, -12
1491432179098,1, -5, -4, -3, 6, 1, 2, 10
1491432179106,5, -7, 2, 1, 3, -1, 0, 31
1491432179113,4, -1, -3, -1, 1, -1, -3, 30
1491432179121,1, 1, 3, 0, -5, -1, -5, -13
1491432179128,0, 2, -3, 0, -3, -2, -4, -3
1491432179143,2, -2, -2, -1, 3, 4, 5, 5
1491432179151,-3, -2, 1, -4, 5, 0, 1, -7
1491432179166,-7, -1, 0, -1, -2, -3, -9, -19
1491432179173,4, -4, -3, -5, -5, -1, 5, 9
1491432179181,-1, -6, -4, -4, -6, -1, 3, -2
1491432179196,-5, -2, -2, 2, 7, 3, -3, -2
1491432179204,-1, -1, -4, 1, 1, -3, -4, -3
1491432179211,-1, 0, -1, 0, -12, -4, 5, 3
1491432179226,-2, -3, 0, 3, 1, 0, -8, -14
1491432179233,-3, -1, 1, 1, -7, 0, 3, -7
1491432179241,2, 10, 0, -1, -2, 0, -3, 2
1491432179257,1, 4, 5, 1, 2, -1, 6, 7
1491432179263,1, -1, -5, -2, 0, -3, -14, -4
1491432179270,-2, -1, -1, -3, 2, -3, -3, -3
1491432179271,-1, 1, -1, -3, -2, -1, -5, -8
1491432179286,-3, -2, 0, 1, -1, 0, 5, -8
1491432179293,1, 0, 0, -3, -1, -7, -4, -12
1491432179301,0, 3, 2, -3, 6, 2, 4, -8
1491432179315,-3, -3, 1, -2, 0, -2, 8, 0
1491432179323,-1, -1, -2, 0, 1, 5, 4, -2
1491432179331,2, -1, -4, 0, 1, 0, 1, 19
1491432179346,0, 8, -4, -2, -1, -4, 1, -3
1491432179353,-2, -2, -1, -1, -6, -5, -17, 26
1491432179361,4, -3, 1, 0, -2, -1, -1, 5
1491432179375,-3, 0, 0, -5, -2, 1, 3, 7
1491432179376,-4, 0, 0, -1, 5, 3, 7, -11
1491432179383,2, 5, -3, 0, 2, 3, -2, 2
1491432179384,-5, -1, -2, 0, -5, -4, -2, -17
1491432179390,4, 1, 0, -1, -2, -1, -2, 19
1491432179391,-5, -1, -1, 2, 3, 2, 1, -6
1491432179406,0, -2, 1, -1, -8, -4, 1, -2
1491432179413,8, -3, -2, -2, -2, -1, -1, -5
1491432179421,15, 1, 2, -1, 4, 3, -2, 29
1491432179435,-8, -5, -1, 1, 2, 1, 2, -1
1491432179443,-8, -10, -4, -1, 4, 5, 4, 0
1491432179450,-11, 8, 0, -2, 0, 1, -3, -25
1491432179468,-13, -4, -3, -2, 0, -3, 3, -16
1491432179473,-2, 1, 0, 0, -3, -4, -7, 38
1491432179481,8, 3, 0, -3, -3, -3, 3, 17
1491432179495,0, -3, 0, 4, 1, -1, -6, -3
1491432179496,7, 5, -2, -4, -3, 1, -1, -9
1491432179503,-7, 4, -2, 0, -4, -4, -2, 6
1491432179510,-3, -4, -1, -1, 3, 1, -5, 1
1491432179511,-2, 1, -1, 0, -1, -6, -9, -20
1491432179526,-2, -6, 0, -2, -6, -3, -11, -3
1491432179533,0, -3, -6, 1, 5, 0, -10, -10
1491432179541,-4, 3, 1, -1, 0, -2, 5, -18
1491432179556,0, -2, -2, 3, 1, 1, 3, -20
1491432179563,9, -4, -1, -1, -1, 2, -2, 7
1491432179570,-13, -6, 1, -1, -3, 1, -4, -6
1491432179571,14, -4, -6, -7, -1, 0, 1, 20
1491432179587,-1, -2, 1, -1, 2, -1, -3, 0
1491432179593,-6, -4, -2, 1, 2, -2, 6, -7
1491432179601,-4, -1, 1, 1, 0, 1, -7, 8
1491432179615,5, 1, -1, -1, -3, 0, 3, -7
1491432179616,-5, -3, -1, -2, -1, -1, 3, -7
1491432179625,0, -3, -6, 1, 0, 0, 2, 0
1491432179631,-2, 6, 2, -1, -1, 1, 0, -1
1491432179646,11, -10, -4, -3, -4, 0, 3, 13
1491432179653,-7, -4, -3, 2, -2, -2, -2, 12
1491432179661,-13, 3, -2, -3, 1, -2, -1, -19
1491432179676,11, 3, 1, -5, 2, 4, 2, -2
1491432179683,-5, 4, 0, 3, -1, 0, -2, -13
1491432179690,-9, -3, 5, 0, -2, -5, 2, 19
1491432179709,6, 3, -1, 0, -1, -6, -2, 22
1491432179713,3, -2, 0, -2, -2, -1, 2, -9
1491432179722,-26, 0, 1, 1, 1, 0, -5, -4
1491432179736,-23, -7, -4, 2, 0, 3, -2, 2
1491432179743,-2, 3, 1, 1, 1, 2, 2, 11
1491432179744,-8, -3, -3, 0, -1, 1, -9, -39
1491432179751,1, 0, 1, -1, -1, -3, -2, -9
1491432179766,8, 2, 0, -3, -3, -2, 2, 9
1491432179773,7, 0, -7, -2, -4, -1, -1, -8
1491432179781,19, 9, 0, -1, -4, -6, 0, -17
1491432179796,-6, -3, 0, -1, 0, -1, -4, -5
1491432179804,0, 1, 0, -1, 2, 2, 4, 20
1491432179811,3, -1, 1, -2, -4, 0, 2, 12
1491432179826,-1, -12, -5, -3, 1, 3, 4, 10
1491432179834,5, -2, 2, 2, 0, -3, -2, -14
1491432179841,-1, 0, 2, -1, -2, 0, 3, -1
1491432179855,-3, -9, 0, 1, 2, 1, 8, -2
1491432179856,9, -2, -1, -2, 0, 2, -6, -13
1491432179863,-13, -2, -2, 0, -3, -4, -5, -7
1491432179870,-8, 3, 1, 2, 1, -3, -7, -17
1491432179886,4, -4, 0, -3, 0, -1, 3, 4
1491432179893,5, -4, -4, -1, 3, 0, 0, -9
1491432179901,21, 8, -3, -2, -3, -2, -3, 0
1491432179915,-7, -5, -1, -1, -4, -2, -4, -5
1491432179916,10, 0, -5, -1, -5, -1, -1, -4
1491432179925,-7, -4, -2, -3, -4, -4, -11, 3
1491432179931,-1, 5, 0, 2, 0, -1, 6, 20
1491432179946,17, 0, -1, 1, 2, 0, 5, 19
1491432179953,-5, -4, 0, 0, -4, -2, -2, 1
1491432179961,-8, 0, 2, 1, 0, 1, -1, -9
1491432179976,2, 4, 3, 5, 5, 5, -2, 3
1491432179984,-7, 0, 0, 3, 0, -3, -10, -6
1491432179992,-18, -9, -2, -5, -1, -3, 3, -1
1491432180007,-2, -1, -1, 4, -1, 1, 4, 3
1491432180013,-1, -2, -2, 0, 2, 1, 0, -1
1491432180023,5, 1, -3, -5, -2, -1, 0, -2
1491432180035,-15, -5, -2, 0, -1, -3, -4, 7
1491432180036,5, 4, -1, -4, -2, -3, -2, -7
1491432180046,-2, -2, -1, 0, -1, -3, 7, 9
1491432180050,2, 2, 1, 3, 3, 4, -2, -10
1491432180066,-11, -1, 5, 0, -1, 0, -2, -8
1491432180073,-1, -2, -5, -2, -1, -3, 1, 1
1491432180088,-1, 0, -5, 1, -2, 1, 0, -2
1491432180096,4, 3, 2, -1, -4, 1, -3, 3
1491432180103,-5, 5, -4, -1, 1, 1, 1, 3
1491432180118,-4, -1, 0, -1, 0, -2, 3, 6
1491432180128,8, -4, 3, -1, -1, -1, 4, 0
1491432180133,-3, 1, 0, 2, -2, 0, 1, 8
1491432180148,-3, -3, 1, -1, 4, 2, 12, -4
1491432180155,0, -2, -2, -2, -1, -3, -2, -5
1491432180163,-5, 5, 3, -3, -2, -3, -8, -11
1491432180180,-2, -3, -6, -2, -1, 0, 4, 2
1491432180186,-3, -4, -1, 1, 3, 2, 1, 3
1491432180193,4, 8, 0, 3, 1, 3, -1, 6
1491432180208,-8, -5, 0, -1, 0, -1, -2, -6
1491432180222,-7, -3, 0, 0, -3, -3, -2, -11
1491432180225,-5, 5, -2, 2, -5, -2, -4, -2
1491432180238,-6, -3, 0, -5, -3, -1, -4, 5
1491432180246,-1, -6, -2, -2, -1, -1, -10, -2
1491432180254,14, 1, -2, -2, -2, -5, -9, 35
1491432180268,1, -5, -3, -3, 1, 2, 2, -2
1491432180275,2, 0, -2, -2, -3, -4, -1, -16
1491432180283,0, -4, -4, -1, 2, -2, -2, 5
1491432180298,-4, -3, -1, -1, 0, 1, -4, -12
1491432180306,2, -2, 1, -2, -4, 1, 2, 0
1491432180313,-3, 2, 0, -2, 0, -2, 1, -12
1491432180328,-3, -3, -2, 0, 1, 0, -1, -10
1491432180335,-1, -7, -2, -2, -2, 2, 2, -2
1491432180343,0, 6, 2, 1, 5, 0, 0, -6
1491432180358,4, -1, 2, 1, 0, 1, 2, 3
1491432180372,-1, -4, -2, -5, -5, -2, 6, 7
1491432180373,-9, -6, -2, -1, 0, 0, 5, -11
1491432180388,5, -5, -2, 1, 2, -2, -7, 17
1491432180389,-10, -10, -3, -1, -1, -1, -4, -7
1491432180396,-3, 2, 0, -2, -3, -1, 1, 0
1491432180403,0, -4, -2, -1, -3, -1, -3, 9
1491432180418,-8, -4, -4, 0, -1, 8, -2, -6
1491432180426,6, 1, -3, -1, 0, -2, -3, 3
1491432180433,1, 1, -1, -3, -1, -6, -2, 0
1491432180448,2, 3, -2, 1, -2, 0, 5, -3
1491432180456,-4, 3, 2, 0, -1, -3, -4, -4
1491432180464,3, 0, 0, -2, -2, 1, -3, -12
1491432180478,1, -1, 2, 5, 1, 1, 4, -2
1491432180486,-5, -1, -2, -1, 1, -3, -2, 1
1491432180493,-1, -10, -3, -3, -1, -2, 0, -1
1491432180508,-5, -1, 2, -2, -3, 0, -2, 5
1491432180515,3, 3, 2, 2, -3, -4, 2, 0
1491432180523,6, -3, -4, 3, 2, -1, -1, 4
1491432180538,-8, 2, -4, -3, -2, 1, -2, -3
1491432180546,-11, 4, 2, 1, -1, -1, 1, -2
1491432180553,1, 3, -1, 0, 5, -2, -1, 18
1491432180568,5, 3, 1, -1, -2, -1, 3, -8
1491432180575,-8, -2, 3, 0, -1, -1, -4, -8
1491432180583,3, 3, -1, -4, -1, -2, -7, 1
1491432180599,-4, 0, 0, -2, 1, 0, 2, -1
1491432180606,7, 1, 1, 3, -7, -4, -3, -1
1491432180613,1, -3, -2, 0, 0, -1, 1, 0
1491432180628,-5, -1, -3, -3, 2, 0, -1, 10
1491432180636,2, 1, -2, 0, -3, -2, -1, 6
1491432180651,-9, -3, 0, -2, 1, 1, 1, -10
1491432180658,11, -2, -2, -3, 0, 2, -3, -6
1491432180666,3, -7, -4, -3, -3, -3, -6, 3
1491432180674,2, 1, 2, -2, 0, -1, 1, 0
1491432180688,-6, 0, -5, -1, -1, 0, 1, -13
1491432180695,-12, -3, -2, 0, 1, 0, -4, -15
1491432180703,16, 5, 0, 3, -1, -2, 2, 0
1491432180718,-4, -4, -1, 0, 1, -1, -1, 5
1491432180726,-21, 2, 0, -1, 0, 0, -3, 5
1491432180733,4, 0, -3, -1, -5, -2, 3, 18
1491432180748,-2, -4, -3, 1, 5, 1, -1, 3
1491432180755,3, 6, 1, 0, -2, -2, 1, -4
1491432180766,-4, -7, -1, -1, 0, 3, -1, -14
1491432180778,-8, -4, -1, 1, 3, 0, -2, -21
1491432180787,-6, -11, 3, -3, 1, 0, 3, 6
1491432180793,18, 6, -1, 0, -2, -1, 0, 2
1491432180809,5, 2, -2, 1, -7, -3, 1, 5
1491432180815,-2, 0, -3, -2, -1, -2, -3, 1
1491432180823,5, -2, -1, -1, 1, -3, -5, -10
1491432180838,7, 0, 3, -5, 1, 0, 4, 29
1491432180846,2, 1, -3, -2, 1, -1, -2, 2
1491432180853,-4, -5, -2, 0, 1, 0, -2, -20
1491432180869,3, 0, -5, 0, -2, -1, 4, -8
1491432180875,-3, -1, -2, -1, 1, -1, -2, -15
1491432180883,-6, 5, -1, 0, 3, 4, 1, -6
1491432180898,-19, 0, 2, -2, -6, -2, -10, 2
1491432180906,6, 3, -2, -1, -4, -2, -6, -5
1491432180913,6, -2, -2, 0, 0, -1, 3, -19
1491432180928,4, 2, 3, -2, 2, 2, -1, -9
1491432180929,1, 2, 3, -2, -2, -3, 4, 7
1491432180935,14, 3, -2, 1, -2, -6, -3, 1
1491432180944,-5, -1, -3, -3, -9, -6, -9, 0
1491432180958,-5, 1, -2, 1, -2, 1, 3, -12
1491432180966,-4, 5, -1, 1, 3, 3, -10, 0
1491432180973,-5, -7, -4, -3, -2, -3, -2, -3
1491432180989,2, 2, -1, -2, 2, 0, 4, 2
1491432180995,-2, -1, -3, 2, 0, 4, 2, 6
1491432181003,-2, -5, -2, -3, -2, 0, 6, 4
1491432181018,0, 2, 1, 0, -2, -2, 5, 13
1491432181019,-13, -4, 2, 0, 9, 1, -4, -8
1491432181026,10, 0, 2, 2, 1, -1, 1, -10
1491432181040,-8, -1, -2, -3, -5, -4, 2, 5
1491432181048,-4, -1, -2, -1, -2, 1, -2, 3
1491432181055,-2, -7, -3, -1, -2, -2, 3, -12
1491432181056,5, -1, 3, 2, -2, 2, -6, 3
1491432181071,11, -3, -3, 0, -1, 0, -2, 1
1491432181078,-2, -1, -2, 0, -7, 4, 8, -3
1491432181086,-6, -6, -3, -8, -25, -17, -27, 15
1491432181100,3, -1, -4, 0, 2, -5, -25, -17
1491432181101,27, 5, -1, -4, -7, -6, 8, 11
1491432181108,4, -2, -1, -1, 8, 6, 29, 14
1491432181115,-5, -1, -2, 0, 2, 0, 20, 5
1491432181130,-6, -4, 1, -2, -3, -6, -28, -8
1491432181131,-6, -2, 3, 2, 3, 3, 6, -5
1491432181138,12, -1, -1, -3, 12, -10, -7, -2
1491432181146,-12, 1, 0, 3, -3, 3, -46, -19
1491432181160,15, 7, 2, 2, -11, 5, 7, 8
1491432181168,14, 2, 0, 1, -5, -2, 16, -3
1491432181176,-19, -1, 0, -1, -2, 0, -19, -13
1491432181191,-5, 11, 1, -1, 3, -1, 7, 2
1491432181198,-12, -1, 2, -9, -6, -3, -8, 25
1491432181213,-21, -6, -1, 5, 8, -1, -35, -10
1491432181220,-16, -3, -4, -5, 13, 5, -19, 1
1491432181229,6, -5, 0, 28, 11, 1, 13, -3
1491432181235,-1, -1, -1, 6, 8, 2, -11, -8
1491432181250,-7, 1, 0, -34, -27, -17, -48, -8
1491432181251,-36, -3, -2, 11, -1, 3, 38, 5
1491432181258,16, 6, 0, -1, -5, 3, 15, 8
1491432181266,4, -2, 0, -15, -3, -2, 8, 2
1491432181280,-3, -3, 2, 6, 8, 6, 27, 6
1491432181281,-37, -10, -3, -12, -7, -8, -10, -17
1491432181288,10, -3, 1, -13, 2, 3, 6, 3
1491432181295,10, 3, 0, 0, -7, -3, -17, -3
1491432181310,-7, -2, 1, 3, 5, 6, 26, 6
1491432181311,18, 1, 1, -9, -6, -6, -14, -8
1491432181318,-6, -3, 0, 14, 9, 1, 34, 3
1491432181326,29, 5, 2, -6, -5, -8, 5, 11
1491432181340,1, -1, 4, -7, -10, 0, 4, 2
1491432181341,-32, -3, 0, 3, 3, -2, 9, -9
1491432181348,20, 1, -1, -10, -6, -5, -10, -4
1491432181355,-3, -4, 1, 13, 5, -1, -7, 7
1491432181356,-4, -5, -3, -7, 2, 4, 26, 5
1491432181370,-13, -1, -2, -12, -7, -4, 0, 2
1491432181378,33, -1, 0, 17, -3, 0, -10, 4
1491432181386,-6, 4, 1, -4, -2, 4, 10, -7
1491432181400,1, -7, -5, -4, -5, -6, -21, -8
1491432181401,2, 1, -3, -7, -1, -6, -12, -3
1491432181408,-5, 3, -4, -4, -8, -10, 2, -4
1491432181415,4, -1, -1, -15, -2, 1, -17, -4
1491432181431,-7, -6, 1, -6, 3, 2, -7, 4
1491432181438,19, 3, -2, 1, -8, -3, 6, -1
1491432181446,0, -9, -4, 12, -1, 2, -8, -1
1491432181460,7, 0, 2, 9, -5, 0, -18, 0
1491432181468,2, -2, -3, 14, 23, -4, -25, -12
1491432181475,11, 0, 2, -3, -17, -1, -4, -5
1491432181476,-2, 9, -3, -8, 22, 6, 7, 3
1491432181497,-16, -1, 2, 3, 1, 2, 4, 3
1491432181498,4, -8, -4, -6, -8, -2, -8, -6
1491432181506,-2, 2, 0, 26, 11, 0, 15, 1
1491432181522,-6, -5, 0, -3, -10, -6, 0, 1
1491432181529,-11, -3, 1, -15, -7, 4, -27, -21
1491432181535,12, 0, 1, -3, 10, 4, 6, -3
1491432181550,-10, -6, -5, 3, -3, -7, -15, -5
1491432181551,2, 1, 0, 1, 1, 3, 7, 3
1491432181558,-4, 1, 0, -2, -4, -1, -24, -7
1491432181567,3, -4, -4, -1, -7, 1, 3, 5
1491432181580,-10, 4, 0, 4, -7, 1, 13, 3
1491432181589,-7, -2, -5, -14, -13, -7, -9, -24
1491432181596,0, 1, 3, -1, -15, -2, -5, -1
1491432181611,-3, 7, -1, -8, -4, 1, -1, -2
1491432181618,-5, -8, -1, -2, -6, 3, 6, -6
1491432181626,-1, 1, 0, -6, -3, 0, 6, -6
1491432181640,-8, 0, -1, 6, 1, 1, -29, 2
1491432181649,-2, 1, 2, -2, -5, 0, 4, 7
1491432181655,1, -1, -4, 10, 3, 3, 5, -4
1491432181656,-11, -1, 0, -18, -8, -3, 11, 4
1491432181670,0, -5, -2, -11, 1, -8, -7, -1
1491432181678,-19, 0, -2, -4, -25, -21, 21, -5
1491432181686,21, 1, -1, 11, 89, 22, -24, 9
1491432181700,0, -4, -3, -8, -16, -17, 6, -4
1491432181708,-8, -1, -2, -5, -27, -7, 18, 2
1491432181715,14, -1, 2, 4, 4, 1, -13, 1
1491432181732,0, 0, -1, -2, -12, 3, 11, 4
1491432181738,-4, -1, -4, -1, -12, 2, 7, -2
1491432181747,-6, -4, 1, 7, 7, 5, 18, 6
1491432181760,5, 6, 4, 7, 17, 9, 17, 14
1491432181768,4, -1, 4, 6, -19, -7, -12, -1
1491432181776,1, -6, -1, 0, 9, 0, -12, -2
1491432181791,4, -3, -4, -4, -9, -2, -7, 4
1491432181798,-1, -2, -1, 2, 10, 3, -9, -5
1491432181806,-15, -1, -1, -26, -27, -8, 7, -1
1491432181820,0, 2, 0, -9, -21, 1, -5, -11
1491432181829,16, -2, -1, 7, 5, 8, 15, 2
1491432181835,-15, -6, -2, -1, -1, -9, -7, 1
1491432181851,-5, 6, 0, 11, -6, 0, 9, 6
1491432181858,1, -5, -4, 2, 1, 1, -38, -1
1491432181866,-3, -2, -2, -3, 1, -3, 4, 5
1491432181880,8, 5, 2, 2, 3, 0, -2, -8
1491432181891,-2, 1, 4, 9, 2, -2, -14, -4
1491432181895,-2, 0, -2, -2, 23, 3, 14, 3
1491432181910,0, -1, -3, 1, -24, -8, 3, -1
1491432181918,8, 3, 3, 11, 7, 10, 10, 5
1491432181926,-1, -4, -1, -2, 6, -3, -4, -3
1491432181941,7, -8, -2, -9, 0, -3, -11, -15
1491432181948,6, 4, -4, -5, -7, -3, 6, 1
1491432181962,2, 2, -5, 3, -3, -3, 6, 9
1491432181970,-6, -8, -1, -4, 6, -1, -4, -2
1491432181978,-4, -3, -3, -3, 8, 2, 6, 0
1491432181993,-7, -2, -3, -15, -9, -6, -22, -7
1491432182000,4, 8, 0, -3, -7, 1, -2, -3
1491432182009,1, 2, 1, 3, -5, 0, -8, -8
1491432182022,13, -1, -3, 18, 1, 2, 5, 6
1491432182031,0, 3, -3, 3, 5, 2, -4, -5
1491432182038,-7, -4, 0, 9, 2, 1, 14, 7
1491432182053,1, -1, -2, -2, 7, 3, 2, 1
1491432182060,3, -9, -4, -3, 3, 3, -40, -3
1491432182068,8, 2, 5, 10, 15, 5, 7, 8
1491432182082,-12, -2, -2, -10, -16, -3, 12, -1
1491432182090,-4, -10, -3, -1, -8, -2, -11, -4
1491432182100,3, -1, -4, -12, -2, -3, 3, -2
1491432182113,-10, -1, -2, -11, -5, 0, 14, 1
1491432182120,-14, 1, -1, -6, 5, 3, 6, -5
1491432182129,-1, 1, 2, 8, 2, 0, -1, 3
1491432182142,-1, 0, 2, 3, -7, -8, -18, -9
1491432182151,1, 4, -1, -14, -3, 0, 7, 4
1491432182152,7, 2, 0, 22, 0, -2, -2, -3
1491432182158,-10, 3, 2, 0, -2, 5, 19, 2
1491432182173,-11, -4, -4, -5, -10, -3, 3, -2
1491432182180,-6, 13, 3, 4, 16, -1, 5, -5
1491432182188,1, 1, -2, -6, 1, -2, 1, 2
1491432182202,6, -2, 1, -3, 1, -6, -32, -6
1491432182210,-3, 0, -3, -9, -3, -2, -2, -5
1491432182218,7, -4, -3, -9, 0, 2, 10, 3
1491432182233,-14, 1, 0, -3, 0, 2, -1, -6
1491432182234,-5, -4, -5, -11, 4, 1, -9, -1
1491432182240,0, -7, -3, 0, -5, -5, -3, 10
1491432182241,-6, -1, -2, 7, -1, -2, -1, 5
1491432182248,0, 0, 0, -5, 7, 0, -9, -2
1491432182262,1, -2, -2, -2, -15, -3, 0, -2
1491432182270,-5, 3, 0, 0, 2, 0, 5, 3
1491432182271,3, -3, -3, 3, 5, -3, -11, -8
1491432182278,12, 0, 0, 4, -5, -3, -3, 9
1491432182293,13, 9, 0, 1, 0, 1, 6, -5
1491432182300,-6, -5, -1, -3, 17, 3, 9, -7
1491432182311,-1, 0, 4, 2, -9, -2, 2, -3
1491432182322,-1, 0, 1, -8, 2, 8, 3, 0
1491432182331,2, -7, -5, -9, -4, 0, -2, -3
1491432182338,-11, 1, 0, -7, -13, -7, 1, -1
1491432182353,-7, -1, -1, -4, -1, -1, -1, 2
1491432182361,16, -3, -3, -5, -4, -6, -18, -5
1491432182368,-4, 0, 2, 4, 1, -3, 4, 0
1491432182382,-1, -1, 0, 6, 3, 3, 13, 1
1491432182390,4, 7, 0, -11, -6, -2, -21, -5
1491432182391,0, -1, -2, 1, -2, -2, 2, -6
1491432182398,-26, -1, -2, -4, -5, -1, 4, -3
1491432182413,2, -5, 2, -12, 1, 4, 5, 4
1491432182420,12, -1, -3, 3, -2, 0, 8, 4
1491432182436,-2, 4, 0, 10, 0, -1, -11, -3
1491432182442,0, 0, 1, 4, -1, -4, -7, -2
1491432182450,1, -4, -4, -12, -2, 1, 5, 5
1491432182451,2, 1, 2, 0, -3, -1, 8, 4
1491432182458,0, -2, -4, -5, -1, 1, 1, 1
1491432182473,-4, -7, -2, 2, -5, -2, -3, 0
1491432182480,0, -3, -2, -31, -15, -3, -4, 0
1491432182481,-9, -2, 1, 52, 19, 6, 18, 1
1491432182489,0, 0, 0, 14, 8, -3, 10, -3
1491432182502,0, -2, 1, -7, -8, -4, -2, 5
1491432182510,1, -2, 1, -9, -2, -1, -18, -5
1491432182519,-3, 3, -2, -6, 1, -3, -13, -2
1491432182533,-9, -5, -4, -9, -5, 0, 0, 2
1491432182540,4, 1, 3, -12, -2, 0, -8, 0
